**** COMMENT ****

**** INPUTS ****
kVp [kV] hvMIN [keV] Dhv [keV]
25  2.5  0.5
Angle [deg.]
30
t_AIR t_BE t_AL t_CU t_SN t_W t_Ta t_Ti t_C t_Wa [mm]
500  1  0.43  0  0  0  0  0  0  0
Nf P
0.68  0.33
****CALCULATED OUTPUTS ****
Brem[uGy/mAs@1m] Char[uGy/mAs@1m]
59.06686  0
HVL1[cm AL] HVL2[cm AL] HVL1[cmCu] HVL2[cmCu] MeanE[keV] EffEAl[keV] EffECu[keV]
0.0294814  0.0398741  0.0009769  0.0012566  16.98857  14.57983  6.913502
**** CALCULATED SPECTRUM ****
Energy[keV]  N[keV cm^2 mAs]^-1 @ 1 meter
2.5  4.462276e-83
3  5.540353e-39
3.5  1.391831e-26
4  3.740236e-14
4.5  2.693021e-9
5  0.000199
5.5  0.0339387
6  5.864414
6.5  82.0449
7  1157.704
7.5  5142.391
8  22980.57
8.5  55432.09
9  134225.4
9.5  231159.7
10  399219
10.5  536445.3
11  723701
11.5  888735.8
12  1.093493e+6
12.5  1.251419e+6
13  1.433775e+6
13.5  1.568290e+6
14  1.716974e+6
14.5  1.802993e+6
15  1.894037e+6
15.5  1.934421e+6
16  1.974133e+6
16.5  1.969695e+6
17  1.962877e+6
17.5  1.922084e+6
18  1.878198e+6
18.5  1.810085e+6
19  1.739018e+6
19.5  1.649546e+6
20  1.557417e+6
20.5  1.451716e+6
21  1.342799e+6
21.5  1.223351e+6
22  1.100034e+6
22.5  967593.5
23  829430.2
23.5  681854.1
24  512978.5
24.5  348938.8
25  0
