**** COMMENT ****

**** INPUTS ****
kVp [kV] hvMIN [keV] Dhv [keV]
50  5  0.5
Angle [deg.]
30
t_AIR t_BE t_AL t_CU t_SN t_W t_Ta t_Ti t_C t_Wa [mm]
500  1  4.72  0  0  0  0  0  0  0
Nf P
0.68  0.33
****CALCULATED OUTPUTS ****
Brem[uGy/mAs@1m] Char[uGy/mAs@1m]
13.24517  0
HVL1[cm AL] HVL2[cm AL] HVL1[cmCu] HVL2[cmCu] MeanE[keV] EffEAl[keV] EffECu[keV]
0.2385507  0.2928553  0.0076595  0.0098351  34.80821  30.59811  30.84225
**** CALCULATED SPECTRUM ****
Energy[keV]  N[keV cm^2 mAs]^-1 @ 1 meter
5  1.740375e-101
5.5  1.343444e-79
6  1.064126e-57
6.5  3.088651e-46
7  9.080228e-35
7.5  4.120757e-28
8  1.883312e-21
8.5  2.229661e-17
9  2.651840e-13
9.5  1.159227e-10
10  5.083271e-8
10.5  2.636285e-6
11  0.000138
11.5  0.0023046
12  0.0385747
12.5  0.2887287
13  2.164326
13.5  9.668989
14  43.33301
14.5  132.6165
15  406.6087
15.5  960.8434
16  2272.694
16.5  4386.931
17  8473.984
17.5  14083.25
18  23418.02
18.5  35074.31
19  52553.69
19.5  72347.68
20  99626.34
20.5  128544.3
21  165890.7
21.5  203260.2
22  249080.9
22.5  293539.5
23  345956.5
23.5  394728.6
24  450378.3
24.5  497580.7
25  549701
25.5  599401.1
26  653524.7
26.5  698988
27  747494.3
27.5  788731.5
28  833163.8
28.5  867614.5
29  903716.4
29.5  929360
30  955424.3
30.5  975906.8
31  996451.2
31.5  1.011953e+6
32  1.027241e+6
32.5  1.035414e+6
33  1.043118e+6
33.5  1.044614e+6
34  1.045497e+6
34.5  1.041462e+6
35  1.036744e+6
35.5  1.028153e+6
36  1.018844e+6
36.5  1.005477e+6
37  991396.8
37.5  974245.6
38  956396.5
38.5  935116
39  913200.9
39.5  889724.4
40  865614.2
40.5  838850.1
41  811522.9
41.5  782036.5
42  752041.9
42.5  720463.3
43  688401.5
43.5  654614.6
44  620373.1
44.5  584256.8
45  547722.7
45.5  509447.2
46  470746.1
46.5  429690.8
47  388229.7
47.5  341087.9
48  293616.3
48.5  246561.2
49  198673.1
49.5  99187.71
50  0
