**** COMMENT ****

**** INPUTS ****
kVp [kV] hvMIN [keV] Dhv [keV]
30  3  0.5
Angle [deg.]
30
t_AIR t_BE t_AL t_CU t_SN t_W t_Ta t_Ti t_C t_Wa [mm]
500  1  0.26  0  0  0  0  0  0  0
Nf P
0.68  0.33
****CALCULATED OUTPUTS ****
Brem[uGy/mAs@1m] Char[uGy/mAs@1m]
143.8262  0
HVL1[cm AL] HVL2[cm AL] HVL1[cmCu] HVL2[cmCu] MeanE[keV] EffEAl[keV] EffECu[keV]
0.0251584  0.0391445  0.0008869  0.0012459  17.80182  13.80331  6.714053
**** CALCULATED SPECTRUM ****
Energy[keV]  N[keV cm^2 mAs]^-1 @ 1 meter
3  2.640494e-23
3.5  3.694789e-15
4  5.612640e-7
4.5  0.0008992
5  1.487681
5.5  43.29419
6  1278.024
6.5  7112.464
7  39900.32
7.5  103982.6
8  272586.8
8.5  475273.3
9  831679.2
9.5  1.162802e+6
10  1.630028e+6
10.5  1.877688e+6
11  2.173446e+6
11.5  2.416613e+6
12  2.693164e+6
12.5  2.888295e+6
13  3.102616e+6
13.5  3.255016e+6
14  3.418974e+6
14.5  3.493257e+6
15  3.570272e+6
15.5  3.584565e+6
16  3.598840e+6
16.5  3.559578e+6
17  3.521696e+6
17.5  3.445778e+6
18  3.369542e+6
18.5  3.271070e+6
19  3.172227e+6
19.5  3.055579e+6
20  2.941348e+6
20.5  2.815149e+6
21  2.691677e+6
21.5  2.559389e+6
22  2.429490e+6
22.5  2.294906e+6
23  2.162828e+6
23.5  2.027894e+6
24  1.893786e+6
24.5  1.759647e+6
25  1.625186e+6
25.5  1.490030e+6
26  1.355734e+6
26.5  1.220100e+6
27  1.082697e+6
27.5  944565.3
28  802272.8
28.5  650508.9
29  493208.6
29.5  312253.9
30  0
