**** COMMENT ****

**** INPUTS ****
kVp [kV] hvMIN [keV] Dhv [keV]
50  5  0.5
Angle [deg.]
30
t_AIR t_BE t_AL t_CU t_SN t_W t_Ta t_Ti t_C t_Wa [mm]
500  1  1.07  0  0  0  0  0  0  0
Nf P
0.68  0.33
****CALCULATED OUTPUTS ****
Brem[uGy/mAs@1m] Char[uGy/mAs@1m]
82.19624  0
HVL1[cm AL] HVL2[cm AL] HVL1[cmCu] HVL2[cmCu] MeanE[keV] EffEAl[keV] EffECu[keV]
0.0967755  0.1465597  0.0030155  0.0045807  28.63065  21.91149  22.11533
**** CALCULATED SPECTRUM ****
Energy[keV]  N[keV cm^2 mAs]^-1 @ 1 meter
5  6.984007e-19
5.5  1.095949e-13
6  1.764707e-8
6.5  9.055349e-6
7  0.0047064
7.5  0.1723469
8  6.355973
8.5  56.50916
9  504.7168
9.5  2044.948
10  8311.323
10.5  18404.68
11  41132.22
11.5  74808.01
12  136351.4
12.5  210887.9
13  326654.7
13.5  456153.1
14  639016
14.5  813529
15  1.037611e+6
15.5  1.242202e+6
16  1.488547e+6
16.5  1.695914e+6
17  1.933536e+6
17.5  2.124264e+6
18  2.335055e+6
18.5  2.501595e+6
19  2.681095e+6
19.5  2.814714e+6
20  2.955865e+6
20.5  3.055371e+6
21  3.158884e+6
21.5  3.225407e+6
22  3.293769e+6
22.5  3.331806e+6
23  3.370506e+6
23.5  3.383237e+6
24  3.396032e+6
24.5  3.383126e+6
25  3.370089e+6
25.5  3.346360e+6
26  3.322442e+6
26.5  3.284168e+6
27  3.245815e+6
27.5  3.196577e+6
28  3.151568e+6
28.5  3.093451e+6
29  3.037168e+6
29.5  2.973176e+6
30  2.909599e+6
30.5  2.843055e+6
31  2.776983e+6
31.5  2.708505e+6
32  2.640545e+6
32.5  2.570048e+6
33  2.500154e+6
33.5  2.428407e+6
34  2.357330e+6
34.5  2.285447e+6
35  2.214264e+6
35.5  2.142475e+6
36  2.071408e+6
36.5  2.000388e+6
37  1.930073e+6
37.5  1.859665e+6
38  1.789964e+6
38.5  1.720211e+6
39  1.651173e+6
39.5  1.582777e+6
40  1.515049e+6
40.5  1.447374e+6
41  1.380357e+6
41.5  1.313269e+6
42  1.246822e+6
42.5  1.180425e+6
43  1.114634e+6
43.5  1.048500e+6
44  982941.5
44.5  916639.4
45  850894
45.5  784057.6
46  717743.9
46.5  649682.1
47  582097.3
47.5  507648.6
48  433777.5
48.5  361577.8
49  289205.1
49.5  143464
50  0
