**** COMMENT ****

**** INPUTS ****
kVp [kV] hvMIN [keV] Dhv [keV]
10  1  0.2
Angle [deg.]
30
t_AIR t_BE t_AL t_CU t_SN t_W t_Ta t_Ti t_C t_Wa [mm]
500  1  0  0  0  0  0  0  0  0
Nf P
0.68  0.33
****CALCULATED OUTPUTS ****
Brem[uGy/mAs@1m] Char[uGy/mAs@1m]
108.3668  0
HVL1[cm AL] HVL2[cm AL] HVL1[cmCu] HVL2[cmCu] MeanE[keV] EffEAl[keV] EffECu[keV]
0.0029874  0.0036507  0.000668  0.0007851  7.366912  6.710634  6.004548
**** CALCULATED SPECTRUM ****
Energy[keV]  N[keV cm^2 mAs]^-1 @ 1 meter
1  1.037461e-135
1.2  3.363670e-111
1.4  1.128843e-86
1.6  3.887047e-62
1.8  1.369030e-37
2  4.890969e-13
2.2  2.679123e-10
2.4  1.486744e-7
2.6  0.0000833
2.8  0.0471101
3  26.8736
3.2  110.1891
3.4  454.2473
3.6  1879.271
3.8  7798.753
4  32498.16
4.2  55822.06
4.4  96144.95
4.6  165979.6
4.8  286662.4
5  495900.3
5.2  606225.4
5.4  741598.9
5.6  908071.8
5.8  1.111023e+6
6  1.359865e+6
6.2  1.450331e+6
6.4  1.545696e+6
6.6  1.646010e+6
6.8  1.750719e+6
7  1.859251e+6
7.2  1.852955e+6
7.4  1.842083e+6
7.6  1.825541e+6
7.8  1.802191e+6
8  1.770706e+6
8.2  1.676645e+6
8.4  1.572246e+6
8.6  1.462160e+6
8.8  1.338970e+6
9  1.199243e+6
9.2  1.040524e+6
9.4  870125.9
9.6  671068.6
9.8  461545.2
10  0
