**** COMMENT ****

**** INPUTS ****
kVp [kV] hvMIN [keV] Dhv [keV]
20  2  0.5
Angle [deg.]
30
t_AIR t_BE t_AL t_CU t_SN t_W t_Ta t_Ti t_C t_Wa [mm]
500  1  0.15  0  0  0  0  0  0  0
Nf P
0.68  0.33
****CALCULATED OUTPUTS ****
Brem[uGy/mAs@1m] Char[uGy/mAs@1m]
112.7824  0
HVL1[cm AL] HVL2[cm AL] HVL1[cmCu] HVL2[cmCu] MeanE[keV] EffEAl[keV] EffECu[keV]
0.0132174  0.0183077  0.0006016  0.0007271  13.1629  11.0838  5.829791
**** CALCULATED SPECTRUM ****
Energy[keV]  N[keV cm^2 mAs]^-1 @ 1 meter
2  7.415069e-53
2.5  5.342121e-33
3  4.339794e-13
3.5  9.878051e-8
4  0.0236653
4.5  2.986761
5  384.9128
5.5  3358.792
6  29635.05
6.5  86677.9
7  255395.4
7.5  454807.1
8  814191.1
8.5  1.114258e+6
9  1.531427e+6
9.5  1.817687e+6
10  2.162036e+6
10.5  2.281702e+6
11  2.415284e+6
11.5  2.474848e+6
12  2.537617e+6
12.5  2.527070e+6
13  2.515567e+6
13.5  2.456023e+6
14  2.392847e+6
14.5  2.280030e+6
15  2.164981e+6
15.5  2.020106e+6
16  1.872425e+6
16.5  1.700833e+6
17  1.526872e+6
17.5  1.338141e+6
18  1.143748e+6
18.5  929998.1
19  697714.1
19.5  456552.8
20  0
