**** COMMENT ****

**** INPUTS ****
kVp [kV] hvMIN [keV] Dhv [keV]
30  3  0.5
Angle [deg.]
30
t_AIR t_BE t_AL t_CU t_SN t_W t_Ta t_Ti t_C t_Wa [mm]
500  1  0.52  0  0  0  0  0  0  0
Nf P
0.68  0.33
****CALCULATED OUTPUTS ****
Brem[uGy/mAs@1m] Char[uGy/mAs@1m]
70.60511  0
HVL1[cm AL] HVL2[cm AL] HVL1[cmCu] HVL2[cmCu] MeanE[keV] EffEAl[keV] EffECu[keV]
0.039556  0.055933  0.0012753  0.0017303  19.40156  16.08405  7.65097
**** CALCULATED SPECTRUM ****
Energy[keV]  N[keV cm^2 mAs]^-1 @ 1 meter
3  2.497795e-47
3.5  1.168908e-32
4  5.938503e-18
4.5  3.342674e-12
5  1.942798e-6
5.5  0.0008737
6  0.398547
6.5  9.320292
7  219.7125
7.5  1320.2
8  7979.671
8.5  23226.41
9  67850.5
9.5  132409.3
10  259073.7
10.5  373604.1
11  541373.4
11.5  704939.8
12  920035.2
12.5  1.103985e+6
13  1.326874e+6
13.5  1.512272e+6
14  1.725630e+6
14.5  1.876793e+6
15  2.041837e+6
15.5  2.151754e+6
16  2.267540e+6
16.5  2.328637e+6
17  2.392026e+6
17.5  2.410494e+6
18  2.427696e+6
18.5  2.413677e+6
19  2.397283e+6
19.5  2.354141e+6
20  2.310306e+6
20.5  2.246385e+6
21  2.182054e+6
21.5  2.101933e+6
22  2.021333e+6
22.5  1.930248e+6
23  1.839060e+6
23.5  1.740133e+6
24  1.639953e+6
24.5  1.535067e+6
25  1.428256e+6
25.5  1.318240e+6
26  1.207453e+6
26.5  1.092773e+6
27  975170.4
27.5  854948.1
28  729733
28.5  594188.7
29  452408.8
29.5  287430.3
30  0
