**** COMMENT ****

**** INPUTS ****
kVp [kV] hvMIN [keV] Dhv [keV]
20  2  0.5
Angle [deg.]
30
t_AIR t_BE t_AL t_CU t_SN t_W t_Ta t_Ti t_C t_Wa [mm]
500  1  2  0  0  0  0  0  0  0
Nf P
0.68  0.33
****CALCULATED OUTPUTS ****
Brem[uGy/mAs@1m] Char[uGy/mAs@1m]
1.10712  0
HVL1[cm AL] HVL2[cm AL] HVL1[cmCu] HVL2[cmCu] MeanE[keV] EffEAl[keV] EffECu[keV]
0.0444455  0.0473461  0.001408  0.0014877  17.2374  16.75132  7.898566
**** CALCULATED SPECTRUM ****
Energy[keV]  N[keV cm^2 mAs]^-1 @ 1 meter
2  0
2.5  0
3  4.972277e-184
3.5  2.997764e-132
4  1.902298e-80
4.5  3.119102e-60
5  5.222210e-40
5.5  1.315069e-30
6  3.348458e-21
6.5  2.674041e-16
7  2.151261e-11
7.5  1.461421e-8
8  9.980278e-6
8.5  0.0005236
9  0.0275862
9.5  0.3511824
10  4.480169
10.5  23.3812
11  122.3918
11.5  385.8562
12  1217.295
12.5  2695.721
13  5967.353
13.5  10504.03
14  18450.82
14.5  27422.64
15  40615.38
15.5  53492.44
16  69984.93
16.5  83046.09
17  97390.79
17.5  105275.6
18  110985.6
18.5  106948.5
19  95088.15
19.5  71383.15
20  0
