**** COMMENT ****

**** INPUTS ****
kVp [kV] hvMIN [keV] Dhv [keV]
30  3  0.5
Angle [deg.]
30
t_AIR t_BE t_AL t_CU t_SN t_W t_Ta t_Ti t_C t_Wa [mm]
500  3  4  0.18  0  0  0  0  0  0
Nf P
0.68  0.33
****CALCULATED OUTPUTS ****
Brem[uGy/mAs@1m] Char[uGy/mAs@1m]
0.1072689  0
HVL1[cm AL] HVL2[cm AL] HVL1[cmCu] HVL2[cmCu] MeanE[keV] EffEAl[keV] EffECu[keV]
0.1576762  0.1637001  0.0048222  0.0050156  26.65591  26.13654  26.16085
**** CALCULATED SPECTRUM ****
Energy[keV]  N[keV cm^2 mAs]^-1 @ 1 meter
3  0
3.5  1.121679e-307
4  1.488554e-190
4.5  6.930061e-145
5  3.331394e-99
5.5  6.749685e-78
6  1.387172e-56
6.5  2.189636e-45
7  3.484083e-34
7.5  1.061573e-27
8  3.253656e-21
8.5  3.090110e-17
9  5.350539e-30
9.5  1.282750e-25
10  3.083371e-21
10.5  3.754886e-18
11  4.594780e-15
11.5  7.806465e-13
12  1.329356e-10
12.5  6.397599e-9
13  3.083900e-7
13.5  5.216365e-6
14  0.0000883
14.5  0.0007659
15  0.0066431
15.5  0.0353975
16  0.1886094
16.5  0.6857265
17  2.493767
17.5  6.9016
18  19.08939
18.5  43.17127
19  97.53336
19.5  187.4546
20  360.0499
20.5  607.7484
21  1024.83
21.5  1572.303
22  2408.164
22.5  3392.01
23  4766.896
23.5  6291.116
24  8269.555
24.5  10211.12
25  12532.78
25.5  14749.7
26  17226.88
26.5  19136.69
27  20961.28
27.5  22162.29
28  22812.68
28.5  21657.42
29  19225.76
29.5  13997.57
30  0
