**** COMMENT ****

**** INPUTS ****
kVp [kV] hvMIN [keV] Dhv [keV]
35  3.5  0.5
Angle [deg.]
30
t_AIR t_BE t_AL t_CU t_SN t_W t_Ta t_Ti t_C t_Wa [mm]
500  3  4  0.25  0  0  0  0  0  0
Nf P
0.68  0.33
****CALCULATED OUTPUTS ****
Brem[uGy/mAs@1m] Char[uGy/mAs@1m]
0.21227  0
HVL1[cm AL] HVL2[cm AL] HVL1[cmCu] HVL2[cmCu] MeanE[keV] EffEAl[keV] EffECu[keV]
0.2224956  0.2326498  0.0069592  0.0073257  30.52448  29.76174  29.80334
**** CALCULATED SPECTRUM ****
Energy[keV]  N[keV cm^2 mAs]^-1 @ 1 meter
3.5  1.235164e-322
4  5.132749e-200
4.5  3.358837e-152
5  2.285329e-104
5.5  4.804308e-82
6  1.028113e-59
6.5  5.824145e-48
7  3.332230e-36
7.5  2.117936e-29
8  1.354878e-22
8.5  2.052794e-18
9  1.752516e-37
9.5  2.864762e-32
10  4.699610e-27
10.5  2.398305e-23
11  1.230581e-19
11.5  6.080006e-17
12  3.011813e-14
12.5  3.399206e-12
13  3.842897e-10
13.5  1.212531e-8
14  3.831962e-7
14.5  5.412480e-6
15  0.0000765
15.5  0.0005992
16  0.0046938
16.5  0.0231153
17  0.113923
17.5  0.4038573
18  1.431894
18.5  3.97034
19  11.01355
19.5  25.11764
20  57.28298
20.5  111.6962
21  217.9414
21.5  379.6699
22  661.6477
22.5  1042.211
23  1640.907
23.5  2400.146
24  3508.886
24.5  4772.137
25  6471.27
25.5  8382.816
26  10846.63
26.5  13329.37
27  16344.23
27.5  19555.89
28  23352.4
28.5  26555.36
29  30097.19
29.5  33242.87
30  36527.92
30.5  38960.16
31  41251.01
31.5  42631.74
32  43367.62
32.5  42645
33  40929.76
33.5  36981.65
34  31640.66
34.5  20598.79
35  0
