**** COMMENT ****

**** INPUTS ****
kVp [kV] hvMIN [keV] Dhv [keV]
10  1  0.2
Angle [deg.]
30
t_AIR t_BE t_AL t_CU t_SN t_W t_Ta t_Ti t_C t_Wa [mm]
500  1  0.3  0  0  0  0  0  0  0
Nf P
0.68  0.33
****CALCULATED OUTPUTS ****
Brem[uGy/mAs@1m] Char[uGy/mAs@1m]
1.192373  0
HVL1[cm AL] HVL2[cm AL] HVL1[cmCu] HVL2[cmCu] MeanE[keV] EffEAl[keV] EffECu[keV]
0.0063434  0.0066442  0.0004459  0.0005417  8.836128  8.673231  5.223279
**** CALCULATED SPECTRUM ****
Energy[keV]  N[keV cm^2 mAs]^-1 @ 1 meter
1  1.426680e-177
1.2  1.371222e-160
1.4  1.364166e-143
1.6  1.392493e-126
1.8  1.453870e-109
2  1.539739e-92
2.2  1.916041e-79
2.4  2.415506e-66
2.6  3.073465e-53
2.8  3.950083e-40
3  5.118913e-27
3.2  2.153846e-23
3.4  9.111557e-20
3.6  3.868243e-16
3.8  1.647304e-12
4  7.044200e-9
4.2  1.810169e-7
4.4  4.664230e-6
4.6  0.0001205
4.8  0.0031125
5  0.0805506
5.2  0.3484039
5.4  1.507969
5.6  6.533081
5.8  28.28104
6  122.4737
6.2  253.3781
6.4  523.8182
6.6  1082.041
6.8  2232.455
7  4598.955
7.2  6739.576
7.4  9851.98
7.6  14356.63
7.8  20840.5
8  30109.29
8.2  36117.23
8.4  42905.53
8.6  50548.32
8.8  58641.09
9  66536.16
9.2  67335
9.4  65676.29
9.6  59078.76
9.8  47393.26
10  0
