**** COMMENT ****

**** INPUTS ****
kVp [kV] hvMIN [keV] Dhv [keV]
15  1.5  0.2
Angle [deg.]
30
t_AIR t_BE t_AL t_CU t_SN t_W t_Ta t_Ti t_C t_Wa [mm]
500  1  0.91  0  0  0  0  0  0  0
Nf P
0.68  0.33
****CALCULATED OUTPUTS ****
Brem[uGy/mAs@1m] Char[uGy/mAs@1m]
1.303521  0
HVL1[cm AL] HVL2[cm AL] HVL1[cmCu] HVL2[cmCu] MeanE[keV] EffEAl[keV] EffECu[keV]
0.0197482  0.0209579  0.0006664  0.0006989  13.05642  12.71884  5.998893
**** CALCULATED SPECTRUM ****
Energy[keV]  N[keV cm^2 mAs]^-1 @ 1 meter
1.5  1.690544e-258
1.7  8.644487e-257
1.9  4.502332e-255
2.1  3.951292e-237
2.3  5.839361e-203
2.5  8.765078e-169
2.7  1.335985e-134
2.9  2.062950e-100
3.1  1.952330e-78
3.3  1.127150e-68
3.5  6.541613e-59
3.7  3.819337e-49
3.9  2.243929e-39
4.1  1.381536e-32
4.3  8.910453e-29
4.5  5.768066e-25
4.7  3.739648e-21
4.9  2.430639e-17
5.1  1.490590e-14
5.3  8.590316e-13
5.5  4.962274e-11
5.7  2.873005e-9
5.9  1.663767e-7
6.1  3.613949e-6
6.3  0.0000295
6.5  0.0002402
6.7  0.0019597
6.9  0.016025
7.1  0.08329
7.3  0.2758912
7.5  0.9151175
7.7  3.033621
7.9  10.0617
8.1  26.23173
8.3  53.56039
8.5  109.4556
8.7  224.0371
8.9  457.5215
9.1  817.5926
9.3  1279.493
9.5  1996.93
9.7  3118.083
9.9  4872.188
10.1  6980.51
10.3  9185.862
10.5  12104.98
10.7  15897.38
10.9  20881.26
11.1  26182.4
11.3  31167.2
11.5  37083.5
11.7  44122.28
11.9  52288.09
12.1  59829.83
12.3  66242.81
12.5  72771.08
12.7  79735.32
12.9  87299.44
13.1  92469.86
13.3  95318.34
13.5  97968.02
13.7  98687.51
13.9  97614.73
14.1  94700.71
14.3  86180.22
14.5  75842.26
14.7  63505.85
14.9  22615.45
