**** COMMENT ****

**** INPUTS ****
kVp [kV] hvMIN [keV] Dhv [keV]
20  2  0.5
Angle [deg.]
30
t_AIR t_BE t_AL t_CU t_SN t_W t_Ta t_Ti t_C t_Wa [mm]
500  1  1.9  0  0  0  0  0  0  0
Nf P
0.68  0.33
****CALCULATED OUTPUTS ****
Brem[uGy/mAs@1m] Char[uGy/mAs@1m]
1.303589  0
HVL1[cm AL] HVL2[cm AL] HVL1[cmCu] HVL2[cmCu] MeanE[keV] EffEAl[keV] EffECu[keV]
0.0436921  0.0467033  0.0013859  0.0014687  17.16351  16.65824  7.860594
**** CALCULATED SPECTRUM ****
Energy[keV]  N[keV cm^2 mAs]^-1 @ 1 meter
2  0
2.5  0
3  8.641809e-175
3.5  1.612476e-125
4  3.166802e-76
4.5  5.448225e-57
5  9.571122e-38
5.5  8.409016e-29
6  7.470148e-20
6.5  3.434446e-15
7  1.590692e-10
7.5  7.836635e-8
8  0.0000388
8.5  0.0016719
9  0.0723283
9.5  0.8099364
10  9.088963
10.5  43.50745
11  208.8941
11.5  619.7491
12  1839.936
12.5  3902.298
13  8273.052
13.5  14105.98
14  24000.84
14.5  34824.42
15  50353.44
15.5  65093.87
16  83591.34
16.5  97769.31
17  113012.9
17.5  120785
18  125900.3
18.5  120212.1
19  105904.1
19.5  78914.64
20  0
