**** COMMENT ****

**** INPUTS ****
kVp [kV] hvMIN [keV] Dhv [keV]
25  2.5  0.5
Angle [deg.]
30
t_AIR t_BE t_AL t_CU t_SN t_W t_Ta t_Ti t_C t_Wa [mm]
500  1  2  0  0  0  0  0  0  0
Nf P
0.68  0.33
****CALCULATED OUTPUTS ****
Brem[uGy/mAs@1m] Char[uGy/mAs@1m]
4.733108  0
HVL1[cm AL] HVL2[cm AL] HVL1[cmCu] HVL2[cmCu] MeanE[keV] EffEAl[keV] EffECu[keV]
0.0656657  0.0736961  0.0020359  0.0022583  20.22969  19.14633  19.17687
**** CALCULATED SPECTRUM ****
Energy[keV]  N[keV cm^2 mAs]^-1 @ 1 meter
2.5  0
3  4.728919e-184
3.5  2.962519e-132
4  1.985290e-80
4.5  3.367441e-60
5  5.860606e-40
5.5  1.512486e-30
6  3.953849e-21
6.5  3.218396e-16
7  2.642275e-11
7.5  1.820979e-8
8  0.0000126
8.5  0.0006723
9  0.0359382
9.5  0.46355
10  5.995957
10.5  31.28128
11  163.8438
11.5  522.2311
12  1667.729
12.5  3760.695
13  8489.891
13.5  15313.78
14  27647.43
14.5  42338.15
15  64859.41
15.5  88748.83
16  121343.2
16.5  151890.3
17  189896.2
17.5  222185.9
18  259421.8
18.5  288773.3
19  320446.4
19.5  341540.7
20  362334.5
20.5  371542.5
21  378059.2
21.5  372527.1
22  362301.9
22.5  340324.1
23  311540.7
23.5  270619.5
24  215129.2
24.5  152995.9
25  0
