**** COMMENT ****

**** INPUTS ****
kVp [kV] hvMIN [keV] Dhv [keV]
30  3  0.5
Angle [deg.]
30
t_AIR t_BE t_AL t_CU t_SN t_W t_Ta t_Ti t_C t_Wa [mm]
500  1  5.5  0  0  0  0  0  0  0
Nf P
0.68  0.33
****CALCULATED OUTPUTS ****
Brem[uGy/mAs@1m] Char[uGy/mAs@1m]
1.000014  0
HVL1[cm AL] HVL2[cm AL] HVL1[cmCu] HVL2[cmCu] MeanE[keV] EffEAl[keV] EffECu[keV]
0.1310477  0.1407881  0.0039989  0.0042984  25.34752  24.43338  24.47948
**** CALCULATED SPECTRUM ****
Energy[keV]  N[keV cm^2 mAs]^-1 @ 1 meter
3  0
3.5  0
4  3.554899e-228
4.5  1.151507e-173
5  3.851430e-119
5.5  1.029664e-93
6  2.792274e-68
6.5  5.711285e-55
7  1.177565e-41
7.5  6.292206e-34
8  3.382059e-26
8.5  1.803145e-21
9  9.648367e-17
9.5  1.118390e-13
10  1.299785e-10
10.5  1.385184e-8
11  1.483338e-6
11.5  0.0000398
12  0.0010699
12.5  0.0110361
13  0.1140266
13.5  0.635141
14  3.542026
14.5  12.74788
15  45.89446
15.5  122.3091
16  325.9481
16.5  687.2421
17  1449.4
17.5  2569.144
18  4551.314
18.5  7147.684
19  11213.71
19.5  15938.57
20  22639.84
20.5  29790.46
21  39160.46
21.5  48376.29
22  59659.92
22.5  70173.1
23  82350.44
23.5  92803.92
24  104166.8
24.5  112289.7
25  120318.9
25.5  126182.1
26  131325.4
26.5  132350.3
27  131519.9
27.5  126685.6
28  118803.2
28.5  104863.9
29  86550.51
29.5  58812.39
30  0
