**** COMMENT ****

**** INPUTS ****
kVp [kV] hvMIN [keV] Dhv [keV]
40  4  0.5
Angle [deg.]
30
t_AIR t_BE t_AL t_CU t_SN t_W t_Ta t_Ti t_C t_Wa [mm]
500  1  4  0.21  0  0  0  0  0  0
Nf P
0.68  0.33
****CALCULATED OUTPUTS ****
Brem[uGy/mAs@1m] Char[uGy/mAs@1m]
0.9248477  0
HVL1[cm AL] HVL2[cm AL] HVL1[cmCu] HVL2[cmCu] MeanE[keV] EffEAl[keV] EffECu[keV]
0.2665248  0.2858629  0.0085316  0.0092972  33.31986  31.93638  32.04331
**** CALCULATED SPECTRUM ****
Energy[keV]  N[keV cm^2 mAs]^-1 @ 1 meter
4  3.082865e-193
4.5  5.553223e-147
5  1.048426e-100
5.5  4.231388e-79
6  1.745334e-57
6.5  4.117824e-46
7  9.802925e-35
7.5  3.794194e-28
8  1.478939e-21
8.5  1.647943e-17
9  5.439543e-33
9.5  2.897671e-28
10  1.549935e-23
10.5  3.354683e-20
11  7.300577e-17
11.5  1.931533e-14
12  5.124677e-12
12.5  3.540611e-10
13  2.452517e-8
13.5  5.439245e-7
14  0.0000121
14.5  0.00013
15  0.001398
15.5  0.00884
16  0.0560012
16.5  0.2334983
17  0.9756067
17.5  3.026495
18  9.39796
18.5  23.42244
19  58.3425
19.5  121.986
20  255.231
20.5  463.9831
21  844.3098
21.5  1387.843
22  2282.219
22.5  3432.744
23  5157.677
23.5  7260.752
24  10224.15
24.5  13478.95
25  17780.06
25.5  22511.98
26  28501.09
26.5  34521.09
27  41735.7
27.5  49423.43
28  58517.15
28.5  66505.45
29  75593.31
29.5  84010.72
30  93272.54
30.5  101518.1
31  110128.8
31.5  117691.1
32  125623.2
32.5  131579
33  137656.3
33.5  141684.5
34  145301.8
34.5  147009.4
35  147504.2
35.5  145943.4
36  143559.7
36.5  138146.8
37  131750.3
37.5  122454.1
38  110110.8
38.5  95534.08
39  78346.21
39.5  45797.07
40  0
