**** COMMENT ****
Inherent filtration included, 0.16 mm Al
**** INPUTS ****
kVp [kV] hvMIN [keV] Dhv [keV]
180  18  0.5
Angle [deg.]
30
t_AIR t_BE t_AL t_CU t_SN t_W t_Ta t_Ti t_C t_Wa [mm]
1000  0  3.16  0.49  0  0  0  0  0  0
Nf P
0.68  0.33
****CALCULATED OUTPUTS ****
Brem[uGy/mAs@1m] Char[uGy/mAs@1m]
88.17852  13.41079
HVL1[cm AL] HVL2[cm AL] HVL1[cmCu] HVL2[cmCu] MeanE[keV] EffEAl[keV] EffECu[keV]
1.198505  1.325274  0.0987957  0.1632195  84.26054  74.93294  79.16534
**** CALCULATED SPECTRUM ****
Energy[keV]  N[keV cm^2 mAs]^-1 @ 1 meter
18  0.0007275
18.5  0.0038752
19  0.0206871
19.5  0.0814431
20  0.3214348
20.5  0.9911097
21  3.062248
21.5  7.971067
22  20.79665
22.5  46.06843
23  102.1915
23.5  202.4008
24  401.3436
24.5  710.8665
25  1260.339
25.5  2069.851
26  3399.63
26.5  5146.923
27  7798.024
27.5  11432.87
28  16772.84
28.5  22804.53
29  31038.68
29.5  40874.92
30  53856.06
30.5  68294.57
31  86644.6
31.5  106968.3
32  132114.4
32.5  158882.8
33  191016.6
33.5  225181
34  265552.4
34.5  306391.3
35  353627.8
35.5  401428.9
36  455829.1
36.5  509803
37  570065.4
37.5  630406.5
38  697323.4
38.5  760895.7
39  830474
39.5  899202.9
40  974109.1
40.5  1.043877e+6
41  1.118896e+6
41.5  1.192026e+6
42  1.270208e+6
42.5  1.343120e+6
43  1.420507e+6
43.5  1.494717e+6
44  1.572370e+6
44.5  1.641349e+6
45  1.713671e+6
45.5  1.784278e+6
46  1.858123e+6
46.5  1.924727e+6
47  1.994630e+6
47.5  2.059520e+6
48  2.126868e+6
48.5  2.186788e+6
49  2.248747e+6
49.5  2.305211e+6
50  2.363445e+6
50.5  2.417492e+6
51  2.471917e+6
51.5  2.515216e+6
52  2.559628e+6
52.5  2.604753e+6
53  2.651027e+6
53.5  2.691132e+6
54  2.732194e+6
54.5  2.773038e+6
55  2.813947e+6
55.5  2.841620e+6
56  2.869910e+6
56.5  2.898348e+6
57  2.927406e+6
57.5  2.956913e+6
58  2.737956e+7
58.5  3.002969e+6
59  3.018817e+6
59.5  4.696343e+7
60  3.062547e+6
60.5  3.077676e+6
61  3.093192e+6
61.5  3.102834e+6
62  3.111698e+6
62.5  3.119240e+6
63  3.127099e+6
63.5  3.136420e+6
64  3.146060e+6
64.5  3.146154e+6
65  3.147173e+6
65.5  3.148819e+6
66  3.150741e+6
66.5  3.151144e+6
67  2.120594e+7
67.5  3.145579e+6
68  3.139613e+6
68.5  3.141512e+6
69  8.046268e+6
69.5  3.135096e+6
70  2.745913e+6
70.5  2.740544e+6
71  2.735388e+6
71.5  2.734971e+6
72  2.734749e+6
72.5  2.733025e+6
73  2.730842e+6
73.5  2.726230e+6
74  2.721808e+6
74.5  2.716774e+6
75  2.711926e+6
75.5  2.704515e+6
76  2.697581e+6
76.5  2.689533e+6
77  2.681674e+6
77.5  2.673574e+6
78  2.665657e+6
78.5  2.655611e+6
79  2.645757e+6
79.5  2.635850e+6
80  2.625369e+6
80.5  2.614150e+6
81  2.603122e+6
81.5  2.592020e+6
82  2.581103e+6
82.5  2.569081e+6
83  2.557640e+6
83.5  2.543365e+6
84  2.529297e+6
84.5  2.515982e+6
85  2.502860e+6
85.5  2.489348e+6
86  2.476027e+6
86.5  2.462799e+6
87  2.448882e+6
87.5  2.434295e+6
88  2.419905e+6
88.5  2.404650e+6
89  2.389597e+6
89.5  2.375090e+6
90  2.360772e+6
90.5  2.345200e+6
91  2.329333e+6
91.5  2.314487e+6
92  2.299829e+6
92.5  2.283742e+6
93  2.267857e+6
93.5  2.252142e+6
94  2.236766e+6
94.5  2.221359e+6
95  2.206140e+6
95.5  2.189664e+6
96  2.173390e+6
96.5  2.157184e+6
97  2.141175e+6
97.5  2.125535e+6
98  2.109485e+6
98.5  2.093501e+6
99  2.077707e+6
99.5  2.062503e+6
100  2.047477e+6
100.5  2.031190e+6
101  2.015360e+6
101.5  1.999202e+6
102  1.983233e+6
102.5  1.967193e+6
103  1.951339e+6
103.5  1.935785e+6
104  1.920409e+6
104.5  1.904987e+6
105  1.889039e+6
105.5  1.873255e+6
106  1.857652e+6
106.5  1.842115e+6
107  1.826754e+6
107.5  1.810505e+6
108  1.794445e+6
108.5  1.779237e+6
109  1.763838e+6
109.5  1.748598e+6
110  1.733527e+6
110.5  1.718521e+6
111  1.703680e+6
111.5  1.688633e+6
112  1.673769e+6
112.5  1.658634e+6
113  1.643667e+6
113.5  1.628072e+6
114  1.612655e+6
114.5  1.598190e+6
115  1.583882e+6
115.5  1.569743e+6
116  1.555293e+6
116.5  1.540661e+6
117  1.526189e+6
117.5  1.511220e+6
118  1.496419e+6
118.5  1.482652e+6
119  1.469188e+6
119.5  1.455110e+6
120  1.441182e+6
120.5  1.426395e+6
121  1.411774e+6
121.5  1.398219e+6
122  1.384807e+6
122.5  1.371446e+6
123  1.357654e+6
123.5  1.343737e+6
124  1.329970e+6
124.5  1.316540e+6
125  1.303252e+6
125.5  1.289633e+6
126  1.276160e+6
126.5  1.263181e+6
127  1.250067e+6
127.5  1.237090e+6
128  1.224248e+6
128.5  1.211020e+6
129  1.197935e+6
129.5  1.185496e+6
130  1.173141e+6
130.5  1.159760e+6
131  1.146527e+6
131.5  1.134307e+6
132  1.122209e+6
132.5  1.109382e+6
133  1.096693e+6
133.5  1.084615e+6
134  1.072264e+6
134.5  1.059652e+6
135  1.047174e+6
135.5  1.035147e+6
136  1.023244e+6
136.5  1.011090e+6
137  999139.3
137.5  987331.5
138  975641.9
138.5  963545.2
139  951576.6
139.5  940187.9
140  928911.9
140.5  917501.9
141  905673.5
141.5  894099.6
142  882644
142.5  871171.6
143  859817
143.5  848760.1
144  837813.6
144.5  826546.8
145  815187.3
145.5  803768.3
146  792469.6
146.5  781841.6
147  771315.3
147.5  760313.5
148  749252
148.5  738364.2
149  727584
149.5  716604.1
150  705738.1
150.5  695289.2
151  684942.3
151.5  674302.5
152  663384.7
152.5  652579.6
153  641885.5
153.5  631579.4
154  621372.9
154.5  610967.1
155  600637.4
155.5  589924.5
156  579321
156.5  569043.3
157  558864.8
157.5  548583.1
158  538405.3
158.5  528586.3
159  518192.6
159.5  507570.4
160  497060
160.5  486766.5
161  476577.4
161.5  466718.3
162  456951.3
162.5  446453
163  435885.1
163.5  425521.1
164  415261.5
164.5  405213.3
165  395261.5
165.5  385301.9
166  374998.6
166.5  364386.5
167  353884.8
167.5  343713.8
168  333637.2
168.5  323454.7
169  313376.9
169.5  302700.6
170  291311
170.5  280093.2
171  268983.2
171.5  257863.3
172  246859.1
172.5  236040.1
173  225358.9
173.5  214412.3
174  203571.1
174.5  192755.3
175  182050.6
175.5  171452.8
176  160964.2
176.5  148707.2
177  126880.1
177.5  105175.5
178  83697.73
178.5  62444.92
179  41412.83
179.5  20598.44
180  0
