**** COMMENT ****
Inherent filtration included, 0.16 mm Al
**** INPUTS ****
kVp [kV] hvMIN [keV] Dhv [keV]
100  10  0.5
Angle [deg.]
30
t_AIR t_BE t_AL t_CU t_SN t_W t_Ta t_Ti t_C t_Wa [mm]
1000  0  3.82  0  0  0  0  0  0  0
Nf P
0.68  0.33
****CALCULATED OUTPUTS ****
Brem[uGy/mAs@1m] Char[uGy/mAs@1m]
75.34527  3.389981
HVL1[cm AL] HVL2[cm AL] HVL1[cmCu] HVL2[cmCu] MeanE[keV] EffEAl[keV] EffECu[keV]
0.3939986  0.5874043  0.0147381  0.0285973  50.74595  37.61053  38.92564
**** CALCULATED SPECTRUM ****
Energy[keV]  N[keV cm^2 mAs]^-1 @ 1 meter
10  0.0000344
10.5  0.0007448
11  0.0167124
11.5  0.1625011
12  1.585973
12.5  8.284598
13  43.35036
13.5  152.4627
14  539.0316
14.5  1387.097
15  3580.861
15.5  7438.811
16  15502.84
16.5  27200.73
17  47811.45
17.5  73966.49
18  114646.3
18.5  162533.9
19  230657.9
19.5  304549.3
20  402636.3
20.5  503450.1
21  629888.7
21.5  753684.6
22  902677.8
22.5  1.045029e+6
23  1.210279e+6
23.5  1.362871e+6
24  1.535844e+6
24.5  1.683597e+6
25  1.845996e+6
25.5  2.000677e+6
26  2.169637e+6
26.5  2.313942e+6
27  2.468208e+6
27.5  2.602995e+6
28  2.747603e+6
28.5  2.866415e+6
29  2.991783e+6
29.5  3.088426e+6
30  3.189588e+6
30.5  3.276016e+6
31  3.364934e+6
31.5  3.439605e+6
32  3.517279e+6
32.5  3.576092e+6
33  3.635928e+6
33.5  3.679507e+6
34  3.724871e+6
34.5  3.755453e+6
35  3.786227e+6
35.5  3.805882e+6
36  3.826798e+6
36.5  3.837006e+6
37  3.847102e+6
37.5  3.848629e+6
38  3.851206e+6
38.5  3.843453e+6
39  3.835505e+6
39.5  3.823347e+6
40  3.812171e+6
40.5  3.793590e+6
41  3.774838e+6
41.5  3.750259e+6
42  3.726677e+6
42.5  3.699403e+6
43  3.672026e+6
43.5  3.641389e+6
44  3.611748e+6
44.5  3.578412e+6
45  3.545050e+6
45.5  3.510313e+6
46  3.476568e+6
46.5  3.439785e+6
47  3.403031e+6
47.5  3.363267e+6
48  3.324538e+6
48.5  3.286327e+6
49  3.248172e+6
49.5  3.207364e+6
50  3.167567e+6
50.5  3.126721e+6
51  3.086005e+6
51.5  3.044325e+6
52  3.003640e+6
52.5  2.963442e+6
53  2.923372e+6
53.5  2.882743e+6
54  2.843053e+6
54.5  2.802261e+6
55  2.761636e+6
55.5  2.720365e+6
56  2.680774e+6
56.5  2.640169e+6
57  2.600476e+6
57.5  2.561509e+6
58  9.134587e+6
58.5  2.484475e+6
59  2.445720e+6
59.5  1.396551e+7
60  2.368271e+6
60.5  2.330244e+6
61  2.292396e+6
61.5  2.255362e+6
62  2.219116e+6
62.5  2.182053e+6
63  2.145167e+6
63.5  2.110027e+6
64  2.075615e+6
64.5  2.039392e+6
65  2.003357e+6
65.5  1.969218e+6
66  1.935780e+6
66.5  1.901460e+6
67  5.744607e+6
67.5  1.833794e+6
68  1.800977e+6
68.5  1.768420e+6
69  2.749797e+6
69.5  1.703957e+6
70  1.601022e+6
70.5  1.572178e+6
71  1.543411e+6
71.5  1.515592e+6
72  1.488293e+6
72.5  1.460665e+6
73  1.433095e+6
73.5  1.405793e+6
74  1.378999e+6
74.5  1.352143e+6
75  1.325342e+6
75.5  1.298302e+6
76  1.271773e+6
76.5  1.245703e+6
77  1.219684e+6
77.5  1.194210e+6
78  1.169196e+6
78.5  1.143384e+6
79  1.117636e+6
79.5  1.092366e+6
80  1.067561e+6
80.5  1.042481e+6
81  1.017459e+6
81.5  993425.5
82  969815.5
82.5  945333.2
83  920898.5
83.5  896444.5
84  872447.4
84.5  848428.6
85  824453.1
85.5  800943.7
86  777855.4
86.5  754206
87  730589.7
87.5  707338.4
88  684501.5
88.5  660641.1
89  636832.8
89.5  613742.8
90  591060.6
90.5  567200.5
91  543386.9
91.5  520270.6
92  497558.4
92.5  473442
93  449370.7
93.5  425761.6
94  402582.7
94.5  376617.3
95  350667.3
95.5  325019.1
96  299837.7
96.5  274515
97  249232.5
97.5  224424.6
98  200066.9
98.5  149299.3
99  98599.52
99.5  48867.82
100  0
