**** COMMENT ****
Inherent filtration included, 0.16 mm Al
**** INPUTS ****
kVp [kV] hvMIN [keV] Dhv [keV]
135  13.5  0.5
Angle [deg.]
30
t_AIR t_BE t_AL t_CU t_SN t_W t_Ta t_Ti t_C t_Wa [mm]
1000  0  2.225  0.23  0  0  0  0  0  0
Nf P
0.68  0.33
****CALCULATED OUTPUTS ****
Brem[uGy/mAs@1m] Char[uGy/mAs@1m]
68.70121  9.248251
HVL1[cm AL] HVL2[cm AL] HVL1[cmCu] HVL2[cmCu] MeanE[keV] EffEAl[keV] EffECu[keV]
0.8399796  1.016689  0.0472187  0.0801811  67.22758  56.17152  59.39578
**** CALCULATED SPECTRUM ****
Energy[keV]  N[keV cm^2 mAs]^-1 @ 1 meter
13.5  0.0000213
14  0.0003459
14.5  0.002971
15  0.0256602
15.5  0.1382696
16  0.7485339
16.5  2.785296
17  10.39068
17.5  29.72715
18  85.27544
18.5  200.1639
19  471.15
19.5  945.176
20  1899.465
20.5  3357.414
21  5943.064
21.5  9610.694
22  15566.46
22.5  23162.22
23  34499.67
23.5  48419.69
24  68016.12
24.5  90103.41
25  119368.9
25.5  152105.7
26  193952.9
26.5  237162.2
27  290316.7
27.5  348776.3
28  419236.8
28.5  485116
29  561626.8
29.5  638919.5
30  727386.2
30.5  811939.1
31  906702.4
31.5  998506.3
32  1.100030e+6
32.5  1.195623e+6
33  1.299162e+6
33.5  1.397429e+6
34  1.503639e+6
34.5  1.599952e+6
35  1.702972e+6
35.5  1.797659e+6
36  1.897335e+6
36.5  1.987189e+6
37  2.081884e+6
37.5  2.168714e+6
38  2.260356e+6
38.5  2.338399e+6
39  2.419748e+6
39.5  2.494011e+6
40  2.571167e+6
40.5  2.636935e+6
41  2.705254e+6
41.5  2.765633e+6
42  2.827975e+6
42.5  2.880773e+6
43  2.935163e+6
43.5  2.983148e+6
44  3.031219e+6
44.5  3.068322e+6
45  3.106469e+6
45.5  3.140808e+6
46  3.176944e+6
46.5  3.203386e+6
47  3.230615e+6
47.5  3.252615e+6
48  3.275314e+6
48.5  3.291576e+6
49  3.308809e+6
49.5  3.319549e+6
50  3.330841e+6
50.5  3.337886e+6
51  3.345443e+6
51.5  3.345686e+6
52  3.344916e+6
52.5  3.344272e+6
53  3.344090e+6
53.5  3.339769e+6
54  3.336842e+6
54.5  3.331278e+6
55  3.326153e+6
55.5  3.313281e+6
56  3.300868e+6
56.5  3.288564e+6
57  3.277141e+6
57.5  3.264748e+6
58  2.081815e+7
58.5  3.233443e+6
59  3.214582e+6
59.5  3.426280e+7
60  3.182811e+6
60.5  3.163053e+6
61  3.143747e+6
61.5  3.121662e+6
62  3.100044e+6
62.5  3.078032e+6
63  3.055528e+6
63.5  3.034208e+6
64  3.013321e+6
64.5  2.987829e+6
65  2.963280e+6
65.5  2.939044e+6
66  2.915264e+6
66.5  2.890742e+6
67  1.416381e+7
67.5  2.839969e+6
68  2.813771e+6
68.5  2.790209e+6
69  5.765879e+6
69.5  2.740698e+6
70  2.504972e+6
70.5  2.483027e+6
71  2.460599e+6
71.5  2.440406e+6
72  2.420543e+6
72.5  2.400264e+6
73  2.380752e+6
73.5  2.359229e+6
74  2.338047e+6
74.5  2.316851e+6
75  2.295985e+6
75.5  2.274080e+6
76  2.252580e+6
76.5  2.230629e+6
77  2.209015e+6
77.5  2.187635e+6
78  2.166576e+6
78.5  2.144939e+6
79  2.122739e+6
79.5  2.100657e+6
80  2.078904e+6
80.5  2.057046e+6
81  2.035513e+6
81.5  2.014354e+6
82  1.993022e+6
82.5  1.971320e+6
83  1.949936e+6
83.5  1.927887e+6
84  1.906234e+6
84.5  1.884461e+6
85  1.863005e+6
85.5  1.841700e+6
86  1.820703e+6
86.5  1.800149e+6
87  1.778984e+6
87.5  1.757757e+6
88  1.736836e+6
88.5  1.715727e+6
89  1.694921e+6
89.5  1.674585e+6
90  1.653997e+6
90.5  1.633069e+6
91  1.612441e+6
91.5  1.592519e+6
92  1.573044e+6
92.5  1.552367e+6
93  1.531985e+6
93.5  1.511921e+6
94  1.492139e+6
94.5  1.472836e+6
95  1.453552e+6
95.5  1.433600e+6
96  1.413930e+6
96.5  1.394451e+6
97  1.375244e+6
97.5  1.356334e+6
98  1.337073e+6
98.5  1.317998e+6
99  1.299188e+6
99.5  1.280917e+6
100  1.263122e+6
100.5  1.244127e+6
101  1.225396e+6
101.5  1.206996e+6
102  1.188849e+6
102.5  1.170835e+6
103  1.152898e+6
103.5  1.134806e+6
104  1.116961e+6
104.5  1.099177e+6
105  1.081635e+6
105.5  1.064427e+6
106  1.046732e+6
106.5  1.029215e+6
107  1.011934e+6
107.5  994545.2
108  977395.7
108.5  960345.7
109  943207.9
109.5  926325.2
110  909668.3
110.5  893179.3
111  876758.4
111.5  859849.3
112  843167.6
112.5  826733.1
113  810517.6
113.5  794377.6
114  777517.5
114.5  761163.9
115  745026.5
115.5  729057.4
116  713298.7
116.5  697259.2
117  680956.1
117.5  664691.3
118  648648.6
118.5  633041.1
119  617539.1
119.5  601323.8
120  585321.5
120.5  569264.6
121  553427.9
121.5  538024.8
122  522001.4
122.5  505858.1
123  489927.7
123.5  474095
124  458475
124.5  442682.4
125  426294.8
125.5  410024.9
126  393975.1
126.5  378232.7
127  362515.2
127.5  344647.2
128  327013.9
128.5  309532
129  292286.5
129.5  275343.4
130  258429
130.5  241196.8
131  224201.9
131.5  207538.9
132  191089.4
132.5  167963.2
133  133424.1
133.5  99395.89
134  65820.66
134.5  32683.24
135  0
