**** COMMENT ****
Inherent filtration included, 0.16 mm Al
**** INPUTS ****
kVp [kV] hvMIN [keV] Dhv [keV]
250  25  0.5
Angle [deg.]
30
t_AIR t_BE t_AL t_CU t_SN t_W t_Ta t_Ti t_C t_Wa [mm]
1000  0  3.26  1.68  0  0  0  0  0  0
Nf P
0.68  0.33
****CALCULATED OUTPUTS ****
Brem[uGy/mAs@1m] Char[uGy/mAs@1m]
119.7667  5.508463
HVL1[cm AL] HVL2[cm AL] HVL1[cmCu] HVL2[cmCu] MeanE[keV] EffEAl[keV] EffECu[keV]
1.678616  1.747375  0.2516666  0.3363899  122.7595  121.0638  122.6521
**** CALCULATED SPECTRUM ****
Energy[keV]  N[keV cm^2 mAs]^-1 @ 1 meter
25  4.989355e-6
25.5  0.0000228
26  0.0001046
26.5  0.0003757
27  0.0013511
27.5  0.0044528
28  0.0146884
28.5  0.038231
29  0.099586
29.5  0.2378867
30  0.5686408
30.5  1.207616
31  2.564242
31.5  5.018214
32  9.825736
32.5  17.74491
33  32.06209
33.5  54.70044
34  93.36476
34.5  149.2837
35  238.7872
35.5  363.7136
36  553.8373
36.5  804.2518
37  1168.275
37.5  1642.176
38  2309.01
38.5  3116.938
39  4208.729
39.5  5545.809
40  7309.527
40.5  9336.854
41  11922.92
41.5  14966.49
42  18791.28
42.5  23034.02
43  28240.7
43.5  34066.69
44  41102.82
44.5  48417.76
45  57045.29
45.5  66681.19
46  77921.79
46.5  89592.58
47  103029
47.5  117455.2
48  133923.2
48.5  150403.3
49  168937.6
49.5  188121.7
50  209515.2
50.5  231527.2
51  255780.2
51.5  278178
52  302578.4
52.5  329075.8
53  357940.4
53.5  386217.4
54  416780.6
54.5  449532.7
55  484916.9
55.5  515094.9
56  547006.6
56.5  580806.6
57  616764.2
57.5  654980.7
58  8.732640e+6
58.5  727392
59  760671.9
59.5  1.639797e+7
60  844000.7
60.5  882393.6
61  922304
61.5  956883.3
62  992853.1
62.5  1.029602e+6
63  1.067809e+6
63.5  1.107955e+6
64  1.149711e+6
64.5  1.182997e+6
65  1.217351e+6
65.5  1.253681e+6
66  1.290794e+6
66.5  1.328271e+6
67  1.207428e+7
67.5  1.396125e+6
68  1.426038e+6
68.5  1.467709e+6
69  4.712662e+6
69.5  1.542185e+6
70  1.271557e+6
70.5  1.293788e+6
71  1.316161e+6
71.5  1.347109e+6
72  1.378885e+6
72.5  1.407446e+6
73  1.436709e+6
73.5  1.463249e+6
74  1.490385e+6
74.5  1.516805e+6
75  1.543798e+6
75.5  1.568171e+6
76  1.592635e+6
76.5  1.615373e+6
77  1.638541e+6
77.5  1.660996e+6
78  1.683863e+6
78.5  1.704490e+6
79  1.725473e+6
79.5  1.745503e+6
80  1.765868e+6
80.5  1.785139e+6
81  1.804293e+6
81.5  1.821476e+6
82  1.838923e+6
82.5  1.855593e+6
83  1.872513e+6
83.5  1.886016e+6
84  1.899714e+6
84.5  1.913865e+6
85  1.928218e+6
85.5  1.941418e+6
86  1.954363e+6
86.5  1.966010e+6
87  1.977822e+6
87.5  1.987935e+6
88  1.998195e+6
88.5  2.007588e+6
89  2.017117e+6
89.5  2.026027e+6
90  2.035066e+6
90.5  2.041896e+6
91  2.048395e+6
91.5  2.055653e+6
92  2.063024e+6
92.5  2.067916e+6
93  2.072905e+6
93.5  2.077857e+6
94  2.082906e+6
94.5  2.087272e+6
95  2.091730e+6
95.5  2.093846e+6
96  2.095612e+6
96.5  2.097334e+6
97  2.099136e+6
97.5  2.100884e+6
98  2.102710e+6
98.5  2.104488e+6
99  2.106344e+6
99.5  2.107482e+6
100  2.108695e+6
100.5  2.107549e+6
101  2.106061e+6
101.5  2.104773e+6
102  2.103556e+6
102.5  2.102023e+6
103  2.100561e+6
103.5  2.099295e+6
104  2.098097e+6
104.5  2.095263e+6
105  2.092499e+6
105.5  2.089855e+6
106  2.086885e+6
106.5  2.083857e+6
107  2.080898e+6
107.5  2.075653e+6
108  2.070483e+6
108.5  2.066171e+6
109  2.061928e+6
109.5  2.057622e+6
110  2.053384e+6
110.5  2.049249e+6
111  2.044807e+6
111.5  2.038896e+6
112  2.033058e+6
112.5  2.027164e+6
113  2.021341e+6
113.5  2.014580e+6
114  2.007895e+6
114.5  2.002285e+6
115  1.996743e+6
115.5  1.991282e+6
116  1.985537e+6
116.5  1.978369e+6
117  1.971276e+6
117.5  1.963269e+6
118  1.955342e+6
118.5  1.949701e+6
119  1.944122e+6
119.5  1.937263e+6
120  1.930472e+6
120.5  1.921449e+6
121  1.912186e+6
121.5  1.905282e+6
122  1.898445e+6
122.5  1.890134e+6
123  1.881902e+6
123.5  1.874446e+6
124  1.867059e+6
124.5  1.858934e+6
125  1.850883e+6
125.5  1.842310e+6
126  1.833512e+6
126.5  1.825487e+6
127  1.817533e+6
127.5  1.809649e+6
128  1.801835e+6
128.5  1.793193e+6
129  1.784626e+6
129.5  1.777022e+6
130  1.769484e+6
130.5  1.759773e+6
131  1.749869e+6
131.5  1.742441e+6
132  1.735076e+6
132.5  1.725403e+6
133  1.715814e+6
133.5  1.707059e+6
134  1.698378e+6
134.5  1.689128e+6
135  1.679956e+6
135.5  1.671356e+6
136  1.662569e+6
136.5  1.653323e+6
137  1.644154e+6
137.5  1.635880e+6
138  1.627673e+6
138.5  1.618531e+6
139  1.609464e+6
139.5  1.601366e+6
140  1.593331e+6
140.5  1.584623e+6
141  1.575748e+6
141.5  1.566360e+6
142  1.557050e+6
142.5  1.548481e+6
143  1.539979e+6
143.5  1.530980e+6
144  1.522054e+6
144.5  1.513582e+6
145  1.505176e+6
145.5  1.495731e+6
146  1.486143e+6
146.5  1.478486e+6
147  1.470885e+6
147.5  1.461342e+6
148  1.451877e+6
148.5  1.443291e+6
149  1.434771e+6
149.5  1.425690e+6
150  1.416682e+6
150.5  1.408318e+6
151  1.399816e+6
151.5  1.390842e+6
152  1.381939e+6
152.5  1.373106e+6
153  1.364343e+6
153.5  1.356174e+6
154  1.348067e+6
154.5  1.339351e+6
155  1.330703e+6
155.5  1.322249e+6
156  1.313673e+6
156.5  1.305592e+6
157  1.297571e+6
157.5  1.289120e+6
158  1.280734e+6
158.5  1.272895e+6
159  1.265114e+6
159.5  1.255891e+6
160  1.246743e+6
160.5  1.238595e+6
161  1.230336e+6
161.5  1.222751e+6
162  1.215220e+6
162.5  1.206231e+6
163  1.197314e+6
163.5  1.189364e+6
164  1.181474e+6
164.5  1.173345e+6
165  1.165278e+6
165.5  1.157535e+6
166  1.149690e+6
166.5  1.141043e+6
167  1.132465e+6
167.5  1.125297e+6
168  1.118177e+6
168.5  1.109731e+6
169  1.101352e+6
169.5  1.093912e+6
170  1.086525e+6
170.5  1.078816e+6
171  1.071019e+6
171.5  1.062700e+6
172  1.054448e+6
172.5  1.047220e+6
173  1.040043e+6
173.5  1.032423e+6
174  1.024860e+6
174.5  1.017010e+6
175  1.009219e+6
175.5  1.001320e+6
176  993348.8
176.5  986776.3
177  980245.3
177.5  972436.9
178  964688.7
178.5  957096.8
179  949561.8
179.5  941988.2
180  934472.3
180.5  927397.1
181  920250.3
181.5  912789
182  905383.3
182.5  897978.7
183  890629.5
183.5  883715.4
184  876849.4
184.5  869656.8
185  862517.4
185.5  856030.6
186  849475
186.5  842276.9
187  835132.1
187.5  827773.1
188  820470.9
188.5  813486.8
189  806553.7
189.5  799711.6
190  792918.7
190.5  786028.5
191  779087.3
191.5  772536.7
192  766030.1
192.5  759232.9
193  752484.8
193.5  745778.3
194  739120
194.5  732553.5
195  726033.4
195.5  719720.2
196  713357.1
196.5  706724.9
197  700140
197.5  693080
198  686076.6
198.5  679634.3
199  673237.6
199.5  667225.5
200  661251.7
200.5  654849.1
201  648408.5
201.5  642013.3
202  635663
202.5  628878.1
203  622147.2
203.5  616209.4
204  610309.3
204.5  604217.1
205  598166.3
205.5  591945.2
206  585692.3
206.5  579046.7
207  572453.6
207.5  566587.9
208  560758.9
208.5  554755.6
209  548792.8
209.5  542429.1
210  536115
210.5  530062.6
211  523984.2
211.5  517943.2
212  511943.3
212.5  505830
213  499760.6
213.5  493885.5
214  488049.9
214.5  482282.5
215  476553.3
215.5  470251.7
216  463939
216.5  458221.9
217  452539.4
217.5  446694.5
218  440888.6
218.5  434794
219  428746.4
219.5  423086.5
220  417463.4
220.5  411277.9
221  405087.1
221.5  399417.8
222  393782.2
222.5  387717.2
223  381699.2
223.5  376010.4
224  370359
224.5  364766.5
225  359209.9
225.5  353083.4
226  346957.7
226.5  341286.2
227  335647.6
227.5  329648.4
228  323695.3
228.5  318027.3
229  312395.9
229.5  306568.2
230  300785.3
230.5  294914.2
231  289040.6
231.5  283097.3
232  277195.5
232.5  271421.1
233  265683.7
233.5  259786.2
234  253933.8
234.5  248313.1
235  242728.1
235.5  236186.9
236  229660
236.5  223435.6
237  217246.3
237.5  210840
238  204483
238.5  198323.9
239  192204
239.5  185982.7
240  179808.9
240.5  173659.2
241  167522.5
241.5  161384.5
242  155288.2
242.5  149158.3
243  143075.4
243.5  137141.8
244  131245.4
244.5  125291.8
245  119383.5
245.5  107134.6
246  94927.29
246.5  82735.08
247  70637.77
247.5  58708.18
248  46841.95
248.5  34994.59
249  23239.03
249.5  11574.43
250  0
