**** COMMENT ****
Inherent filtration included, 0.16 mm Al
**** INPUTS ****
kVp [kV] hvMIN [keV] Dhv [keV]
60  6  0.5
Angle [deg.]
30
t_AIR t_BE t_AL t_CU t_SN t_W t_Ta t_Ti t_C t_Wa [mm]
1000  0  3.88  0  0  0  0  0  0  0
Nf P
0.68  0.33
****CALCULATED OUTPUTS ****
Brem[uGy/mAs@1m] Char[uGy/mAs@1m]
27.82371  0
HVL1[cm AL] HVL2[cm AL] HVL1[cmCu] HVL2[cmCu] MeanE[keV] EffEAl[keV] EffECu[keV]
0.2536025  0.3346376  0.008292  0.0118095  37.77176  31.33784  31.73002
**** CALCULATED SPECTRUM ****
Energy[keV]  N[keV cm^2 mAs]^-1 @ 1 meter
6  8.775283e-47
6.5  2.993899e-37
7  1.037519e-27
7.5  3.563048e-22
8  1.233727e-16
8.5  3.007394e-13
9  7.369781e-10
9.5  1.151850e-7
10  0.0000181
10.5  0.0004539
11  0.0115558
11.5  0.1176212
12  1.200753
12.5  6.363976
13  33.77153
13.5  117.823
14  411.8436
14.5  1047.692
15  2668.849
15.5  5464.494
16  11215.53
16.5  19388.55
17  33598.34
17.5  51263.32
18  78304.12
18.5  109538.9
19  153277.5
19.5  199911.2
20  260773.1
20.5  322125.7
21  397950.2
21.5  470528.2
22  557013
22.5  637408.9
23  730483.8
23.5  813833.4
24  907631
24.5  984436.8
25  1.068152e+6
25.5  1.146956e+6
26  1.231308e+6
26.5  1.301000e+6
27  1.374322e+6
27.5  1.435817e+6
28  1.501278e+6
28.5  1.551689e+6
29  1.605613e+6
29.5  1.642227e+6
30  1.680093e+6
30.5  1.710068e+6
31  1.739951e+6
31.5  1.763500e+6
32  1.786566e+6
32.5  1.800049e+6
33  1.812751e+6
33.5  1.816786e+6
34  1.821909e+6
34.5  1.818400e+6
35  1.816640e+6
35.5  1.808125e+6
36  1.799772e+6
36.5  1.786402e+6
37  1.772119e+6
37.5  1.754956e+6
38  1.736685e+6
38.5  1.714541e+6
39  1.691377e+6
39.5  1.666418e+6
40  1.642412e+6
40.5  1.613551e+6
41  1.586561e+6
41.5  1.555639e+6
42  1.526034e+6
42.5  1.493330e+6
43  1.460899e+6
43.5  1.428296e+6
44  1.394810e+6
44.5  1.360723e+6
45  1.325615e+6
45.5  1.290086e+6
46  1.255473e+6
46.5  1.218521e+6
47  1.183452e+6
47.5  1.145769e+6
48  1.108627e+6
48.5  1.071782e+6
49  1.034404e+6
49.5  997125.5
50  958905.5
50.5  921183.6
51  882132.6
51.5  843054.5
52  804414.6
52.5  764621.2
53  726464.4
53.5  686116.8
54  646335.9
54.5  605403.6
55  563959.1
55.5  522857.5
56  480274.3
56.5  437935.9
57  390393.9
57.5  343439.6
58  297939.6
58.5  250343.4
59  187465.8
59.5  92480.83
60  0
