**** COMMENT ****
Inherent filtration included, 0.16 mm Al
**** INPUTS ****
kVp [kV] hvMIN [keV] Dhv [keV]
100  10  0.5
Angle [deg.]
30
t_AIR t_BE t_AL t_CU t_SN t_W t_Ta t_Ti t_C t_Wa [mm]
1000  0  4.27  0.15  0  0  0  0  0  0
Nf P
0.68  0.33
****CALCULATED OUTPUTS ****
Brem[uGy/mAs@1m] Char[uGy/mAs@1m]
34.23506  2.650154
HVL1[cm AL] HVL2[cm AL] HVL1[cmCu] HVL2[cmCu] MeanE[keV] EffEAl[keV] EffECu[keV]
0.6537347  0.8057022  0.0297749  0.0471535  57.56886  48.22004  50.08449
**** CALCULATED SPECTRUM ****
Energy[keV]  N[keV cm^2 mAs]^-1 @ 1 meter
10  3.522847e-19
10.5  2.472596e-16
11  1.800923e-13
11.5  2.261075e-11
12  2.849416e-9
12.5  1.109538e-7
13  4.327871e-6
13.5  0.0000656
14  0.0009988
14.5  0.0080065
15  0.0643884
15.5  0.3257977
16  1.653789
16.5  5.823909
17  20.54619
17.5  55.74415
18  151.5268
18.5  339.5927
19  761.8473
19.5  1465.242
20  2821.74
20.5  4808.485
21  8199.049
21.5  12779.55
22  19938.16
22.5  28774.86
23  41543.49
23.5  56599.41
24  77169.21
24.5  99330.27
25  127885.3
25.5  159305.5
26  198565.7
26.5  238114.7
27  285583
27.5  335965.3
28  395590.4
28.5  450628.2
29  513566.6
29.5  574308.6
30  642516.3
30.5  707286.6
31  778620.4
31.5  846892.2
32  921502.9
32.5  989601.2
33  1.062744e+6
33.5  1.130015e+6
34  1.201952e+6
34.5  1.265902e+6
35  1.333233e+6
35.5  1.393906e+6
36  1.457783e+6
36.5  1.513628e+6
37  1.571556e+6
37.5  1.623300e+6
38  1.677205e+6
38.5  1.721933e+6
39  1.767757e+6
39.5  1.808926e+6
40  1.851512e+6
40.5  1.885858e+6
41  1.920706e+6
41.5  1.950138e+6
42  1.980464e+6
42.5  2.004887e+6
43  2.029445e+6
43.5  2.049345e+6
44  2.069865e+6
44.5  2.083835e+6
45  2.097701e+6
45.5  2.109099e+6
46  2.120957e+6
46.5  2.127679e+6
47  2.134196e+6
47.5  2.136873e+6
48  2.139921e+6
48.5  2.140141e+6
49  2.140109e+6
49.5  2.136318e+6
50  2.132869e+6
50.5  2.126816e+6
51  2.120507e+6
51.5  2.110214e+6
52  2.100273e+6
52.5  2.090339e+6
53  2.080160e+6
53.5  2.067724e+6
54  2.055634e+6
54.5  2.042289e+6
55  2.028723e+6
55.5  2.011506e+6
56  1.995226e+6
56.5  1.977886e+6
57  1.960920e+6
57.5  1.944199e+6
58  6.978650e+6
58.5  1.907852e+6
59  1.887750e+6
59.5  1.079009e+7
60  1.849078e+6
60.5  1.828633e+6
61  1.808073e+6
61.5  1.786701e+6
62  1.765733e+6
62.5  1.743786e+6
63  1.721758e+6
63.5  1.701016e+6
64  1.680647e+6
64.5  1.657278e+6
65  1.633871e+6
65.5  1.611923e+6
66  1.590368e+6
66.5  1.567811e+6
67  4.753696e+6
67.5  1.521930e+6
68  1.499081e+6
68.5  1.477295e+6
69  2.305404e+6
69.5  1.432775e+6
70  1.350174e+6
70.5  1.328767e+6
71  1.307324e+6
71.5  1.287442e+6
72  1.267878e+6
72.5  1.247416e+6
73  1.226894e+6
73.5  1.206331e+6
74  1.186102e+6
74.5  1.165641e+6
75  1.145128e+6
75.5  1.124089e+6
76  1.103402e+6
76.5  1.082944e+6
77  1.062443e+6
77.5  1.042262e+6
78  1.022402e+6
78.5  1.001633e+6
79  980843.1
79.5  960329.9
80  940152.2
80.5  919597.3
81  899021.8
81.5  879186
82  859659.8
82.5  839243.6
83  818805.1
83.5  798129
84  777803.4
84.5  757448.5
85  737074
85.5  717010
86  697268.7
86.5  676924.5
87  656557.3
87.5  636423.3
88  616613.4
88.5  595795.9
89  574977.3
89.5  554756.2
90  534857.8
90.5  513780.8
91  492703.2
91.5  472244.4
92  452108.8
92.5  430597.5
93  409086.6
93.5  387956.3
94  367178.4
94.5  343815.4
95  320422.7
95.5  297224.3
96  274415.8
96.5  251441.1
97  228466.4
97.5  205890.2
98  183690.9
98.5  137188.5
99  90673.87
99.5  44975.39
100  0
