**** COMMENT ****
Inherent filtration included, 0.16 mm Al
**** INPUTS ****
kVp [kV] hvMIN [keV] Dhv [keV]
200  20  0.5
Angle [deg.]
30
t_AIR t_BE t_AL t_CU t_SN t_W t_Ta t_Ti t_C t_Wa [mm]
1000  0  4.26  1.11  0  0  0  0  0  0
Nf P
0.68  0.33
****CALCULATED OUTPUTS ****
Brem[uGy/mAs@1m] Char[uGy/mAs@1m]
74.22819  6.751405
HVL1[cm AL] HVL2[cm AL] HVL1[cmCu] HVL2[cmCu] MeanE[keV] EffEAl[keV] EffECu[keV]
1.458825  1.541145  0.1649433  0.2405998  101.1355  95.02191  98.90812
**** CALCULATED SPECTRUM ****
Energy[keV]  N[keV cm^2 mAs]^-1 @ 1 meter
20  8.164907e-10
20.5  8.680415e-9
21  9.241379e-8
21.5  6.931462e-7
22  5.208975e-6
22.5  0.0000279
23  0.0001496
23.5  0.0006364
24  0.0027099
24.5  0.0091579
25  0.0309584
25.5  0.0888564
26  0.2552788
26.5  0.6190244
27  1.502296
27.5  3.420328
28  7.792697
28.5  15.09731
29  29.24801
29.5  53.18893
30  96.78033
30.5  162.2996
31  272.3114
31.5  431.7894
32  684.9663
32.5  1027.182
33  1540.117
33.5  2217.495
34  3194.017
34.5  4396.694
35  6054.309
35.5  8056.358
36  10723.78
36.5  13815.58
37  17795.04
37.5  22401.13
38  28207.28
38.5  34524.29
39  42266.88
39.5  50886.9
40  61279.62
40.5  72202.78
41  85053.83
41.5  98978.17
42  115207.1
42.5  131913.3
43  151073.1
43.5  171076.5
44  193766.1
44.5  215943.9
45  240605.2
45.5  266556.5
46  295359.1
46.5  323615.6
47  354635
47.5  386185.7
48  420611.1
48.5  453649.8
49  489174.2
49.5  524190.4
50  561796.5
50.5  598742.2
51  638208.4
51.5  673081.2
52  709956.4
52.5  748949.2
53  789912.1
53.5  828504.8
54  869093.6
54.5  911118.3
55  955291.9
55.5  991053.6
56  1.028610e+6
56.5  1.066984e+6
57  1.106916e+6
57.5  1.148402e+6
58  1.217347e+7
58.5  1.223403e+6
59  1.256216e+6
59.5  2.189787e+7
60  1.336622e+6
60.5  1.371962e+6
61  1.407948e+6
61.5  1.437852e+6
62  1.468534e+6
62.5  1.498954e+6
63  1.530147e+6
63.5  1.562938e+6
64  1.596576e+6
64.5  1.621191e+6
65  1.645856e+6
65.5  1.672105e+6
66  1.698918e+6
66.5  1.725045e+6
67  1.294659e+7
67.5  1.769959e+6
68  1.788532e+6
68.5  1.816668e+6
69  5.049148e+6
69.5  1.863331e+6
70  1.614225e+6
70.5  1.626903e+6
71  1.639804e+6
71.5  1.659851e+6
72  1.680262e+6
72.5  1.697649e+6
73  1.714920e+6
73.5  1.729707e+6
74  1.744739e+6
74.5  1.758992e+6
75  1.773477e+6
75.5  1.785080e+6
76  1.796874e+6
76.5  1.807831e+6
77  1.818541e+6
77.5  1.828627e+6
78  1.838879e+6
78.5  1.846831e+6
79  1.854925e+6
79.5  1.862237e+6
80  1.869683e+6
80.5  1.876229e+6
81  1.882477e+6
81.5  1.887838e+6
82  1.893317e+6
82.5  1.897655e+6
83  1.902102e+6
83.5  1.903669e+6
84  1.905333e+6
84.5  1.907901e+6
85  1.910148e+6
85.5  1.911490e+6
86  1.912925e+6
86.5  1.913501e+6
87  1.914169e+6
87.5  1.913690e+6
88  1.913301e+6
88.5  1.911984e+6
89  1.910348e+6
89.5  1.908831e+6
90  1.907400e+6
90.5  1.903958e+6
91  1.900603e+6
91.5  1.898260e+6
92  1.895999e+6
92.5  1.891792e+6
93  1.887281e+6
93.5  1.882805e+6
94  1.878415e+6
94.5  1.874142e+6
95  1.869950e+6
95.5  1.863790e+6
96  1.857721e+6
96.5  1.851720e+6
97  1.845432e+6
97.5  1.839184e+6
98  1.833023e+6
98.5  1.826837e+6
99  1.820737e+6
99.5  1.814813e+6
100  1.808971e+6
100.5  1.801262e+6
101  1.793290e+6
101.5  1.785519e+6
102  1.777839e+6
102.5  1.769991e+6
103  1.762234e+6
103.5  1.754672e+6
104  1.747195e+6
104.5  1.738898e+6
105  1.730353e+6
105.5  1.721859e+6
106  1.713457e+6
106.5  1.705042e+6
107  1.696718e+6
107.5  1.686773e+6
108  1.676933e+6
108.5  1.668103e+6
109  1.659043e+6
109.5  1.650037e+6
110  1.641124e+6
110.5  1.632202e+6
111  1.623370e+6
111.5  1.613824e+6
112  1.604678e+6
112.5  1.595026e+6
113  1.585469e+6
113.5  1.575007e+6
114  1.564650e+6
114.5  1.555384e+6
115  1.546208e+6
115.5  1.537028e+6
116  1.527936e+6
116.5  1.518186e+6
117  1.508245e+6
117.5  1.497506e+6
118  1.486873e+6
118.5  1.477841e+6
119  1.468893e+6
119.5  1.459388e+6
120  1.449974e+6
120.5  1.439040e+6
121  1.427948e+6
121.5  1.418487e+6
122  1.409113e+6
122.5  1.399100e+6
123  1.389182e+6
123.5  1.379277e+6
124  1.369465e+6
124.5  1.359705e+6
125  1.349782e+6
125.5  1.339261e+6
126  1.328841e+6
126.5  1.319200e+6
127  1.309647e+6
127.5  1.300180e+6
128  1.290798e+6
128.5  1.280726e+6
129  1.270510e+6
129.5  1.261137e+6
130  1.251847e+6
130.5  1.241211e+6
131  1.230678e+6
131.5  1.221725e+6
132  1.212847e+6
132.5  1.202552e+6
133  1.192130e+6
133.5  1.182488e+6
134  1.172932e+6
134.5  1.162864e+6
135  1.152890e+6
135.5  1.143511e+6
136  1.134216e+6
136.5  1.124396e+6
137  1.114456e+6
137.5  1.105310e+6
138  1.096244e+6
138.5  1.086484e+6
139  1.076814e+6
139.5  1.067927e+6
140  1.059115e+6
140.5  1.049680e+6
141  1.040131e+6
141.5  1.030686e+6
142  1.021327e+6
142.5  1.012046e+6
143  1.002848e+6
143.5  993796.9
144  984825.4
144.5  975713.7
145  966494.2
145.5  956880.7
146  947357.3
146.5  938985.7
147  930681.7
147.5  921336.1
148  912077.8
148.5  903384.3
149  894586.9
149.5  885355.5
150  876208.6
150.5  867637.2
151  859138.7
151.5  850229.3
152  841400.3
152.5  832534.6
153  823579.9
153.5  815169.5
154  806829.3
154.5  798051.3
155  789352.6
155.5  780783
156  772289
156.5  764128.3
157  755875.3
157.5  747305.5
158  738811.4
158.5  730768.2
159  722790.5
159.5  714111.2
160  705513.3
160.5  697185.7
161  688779.8
161.5  680880
162  673042.8
162.5  664514.3
163  656065.2
163.5  648016.7
164  640037.4
164.5  632009.1
165  623903.9
165.5  615782
166  607729.7
166.5  599448.1
167  591242.5
167.5  583737.7
168  576290.4
168.5  568069.4
169  559786.1
169.5  551850.2
170  543981.3
170.5  536220.2
171  528523.1
171.5  520562.2
172  512674.2
172.5  504889.9
173  497037.1
173.5  489232.4
174  481492.6
174.5  473568.2
175  465714.8
175.5  457909
176  450173.8
176.5  442704.6
177  435161.3
177.5  427168.1
178  419247.1
178.5  411416.5
179  403655.3
179.5  395944.9
180  388303.4
180.5  380565.6
181  372765.6
181.5  364837.1
182  356978.5
182.5  349167.9
183  341426.7
183.5  333944.5
184  326521.5
184.5  318510.9
185  310450.3
185.5  302628.7
186  294869
186.5  287010.5
187  279221.2
187.5  271520.5
188  263886.3
188.5  255225.4
189  246513.5
189.5  237892
190  229345.6
190.5  220860.1
191  212449
191.5  204229
192  196072.3
192.5  187717.6
193  179318.8
193.5  170993.1
194  162740.2
194.5  154568.6
195  146467.2
195.5  138506.5
196  130606.4
196.5  113973.5
197  97257.66
197.5  80648.96
198  64202.29
198.5  47939.59
199  31819.33
199.5  15850.07
200  0
