**** COMMENT ****
Inherent filtration included, 0.16 mm Al
**** INPUTS ****
kVp [kV] hvMIN [keV] Dhv [keV]
250  25  0.5
Angle [deg.]
30
t_AIR t_BE t_AL t_CU t_SN t_W t_Ta t_Ti t_C t_Wa [mm]
1000  0  4.18  1.63  0  0  0  0  0  0
Nf P
0.68  0.33
****CALCULATED OUTPUTS ****
Brem[uGy/mAs@1m] Char[uGy/mAs@1m]
117.2003  5.510355
HVL1[cm AL] HVL2[cm AL] HVL1[cmCu] HVL2[cmCu] MeanE[keV] EffEAl[keV] EffECu[keV]
1.67589  1.74553  0.2505688  0.3359833  122.4817  119.8151  122.3154
**** CALCULATED SPECTRUM ****
Energy[keV]  N[keV cm^2 mAs]^-1 @ 1 meter
25  7.139271e-6
25.5  0.0000321
26  0.0001441
26.5  0.0005094
27  0.0018029
27.5  0.0058461
28  0.0189742
28.5  0.048798
29  0.1255985
29.5  0.29638
30  0.6998576
30.5  1.471341
31  3.092832
31.5  5.999298
32  11.64315
32.5  20.85993
33  37.39075
33.5  63.31292
34  107.254
34.5  170.362
35  270.708
35.5  409.9146
36  620.5256
36.5  896.3412
37  1295.18
37.5  1811.683
38  2534.926
38.5  3406.917
39  4580.135
39.5  6011.322
40  7891.73
40.5  10044.65
41  12781.09
41.5  15987.83
42  20003.67
42.5  24445.05
43  29878.91
43.5  35939.64
44  43238.44
44.5  50809.12
45  59716.64
45.5  69640.33
46  81189.22
46.5  93149.41
47  106889.8
47.5  121592.6
48  138340.3
48.5  155096.7
49  173909.8
49.5  193320.8
50  214930.2
50.5  237120.6
51  261528.7
51.5  284054.2
52  308561.9
52.5  335140
53  364054.9
53.5  392335.3
54  422865.6
54.5  455482.2
55  490673.8
55.5  520677.4
56  552370
56.5  585902
57  621539.4
57.5  659377.2
58  8.782274e+6
58.5  731015.4
59  763927.2
59.5  1.646730e+7
60  845839.9
60.5  883589.1
61  922794
61.5  956818.6
62  992191.7
62.5  1.028173e+6
63  1.065556e+6
63.5  1.104955e+6
64  1.145912e+6
64.5  1.178353e+6
65  1.211817e+6
65.5  1.247359e+6
66  1.283644e+6
66.5  1.320091e+6
67  1.199245e+7
67.5  1.386109e+6
68  1.415242e+6
68.5  1.455690e+6
69  4.671160e+6
69.5  1.527994e+6
70  1.259353e+6
70.5  1.280987e+6
71  1.302749e+6
71.5  1.332879e+6
72  1.363805e+6
72.5  1.391513e+6
73  1.419892e+6
73.5  1.445624e+6
74  1.471926e+6
74.5  1.497536e+6
75  1.523697e+6
75.5  1.547132e+6
76  1.570636e+6
76.5  1.592691e+6
77  1.615158e+6
77.5  1.636949e+6
78  1.659137e+6
78.5  1.678938e+6
79  1.699077e+6
79.5  1.718303e+6
80  1.737849e+6
80.5  1.756345e+6
81  1.774717e+6
81.5  1.791442e+6
82  1.808425e+6
82.5  1.824413e+6
83  1.840641e+6
83.5  1.853355e+6
84  1.866254e+6
84.5  1.879822e+6
85  1.893584e+6
85.5  1.906252e+6
86  1.918666e+6
86.5  1.929844e+6
87  1.941182e+6
87.5  1.950893e+6
88  1.960746e+6
88.5  1.969501e+6
89  1.978386e+6
89.5  1.986951e+6
90  1.995642e+6
90.5  2.001960e+6
91  2.007952e+6
91.5  2.014935e+6
92  2.022028e+6
92.5  2.026484e+6
93  2.031034e+6
93.5  2.035546e+6
94  2.040152e+6
94.5  2.044386e+6
95  2.048711e+6
95.5  2.050533e+6
96  2.052012e+6
96.5  2.053446e+6
97  2.054960e+6
97.5  2.056419e+6
98  2.057956e+6
98.5  2.059444e+6
99  2.061008e+6
99.5  2.062172e+6
100  2.063410e+6
100.5  2.062129e+6
101  2.060513e+6
101.5  2.059093e+6
102  2.057744e+6
102.5  2.056085e+6
103  2.054496e+6
103.5  2.053098e+6
104  2.051768e+6
104.5  2.048884e+6
105  2.046069e+6
105.5  2.043371e+6
106  2.040355e+6
106.5  2.037283e+6
107  2.034277e+6
107.5  2.028832e+6
108  2.023461e+6
108.5  2.019181e+6
109  2.014969e+6
109.5  2.010696e+6
110  2.006489e+6
110.5  2.002383e+6
111  1.997977e+6
111.5  1.992182e+6
112  1.986457e+6
112.5  1.980678e+6
113  1.974968e+6
113.5  1.968098e+6
114  1.961303e+6
114.5  1.955804e+6
115  1.950370e+6
115.5  1.945016e+6
116  1.939386e+6
116.5  1.932408e+6
117  1.925502e+6
117.5  1.917467e+6
118  1.909511e+6
118.5  1.903982e+6
119  1.898515e+6
119.5  1.891840e+6
120  1.885231e+6
120.5  1.876252e+6
121  1.867039e+6
121.5  1.860321e+6
122  1.853667e+6
122.5  1.845617e+6
123  1.837642e+6
123.5  1.830156e+6
124  1.822740e+6
124.5  1.814870e+6
125  1.807073e+6
125.5  1.798541e+6
126  1.789792e+6
126.5  1.782020e+6
127  1.774317e+6
127.5  1.766682e+6
128  1.759115e+6
128.5  1.750520e+6
129  1.742001e+6
129.5  1.734639e+6
130  1.727340e+6
130.5  1.717746e+6
131  1.707963e+6
131.5  1.700772e+6
132  1.693642e+6
132.5  1.684086e+6
133  1.674614e+6
133.5  1.666165e+6
134  1.657786e+6
134.5  1.648646e+6
135  1.639584e+6
135.5  1.631284e+6
136  1.622800e+6
136.5  1.613666e+6
137  1.604610e+6
137.5  1.596625e+6
138  1.588705e+6
138.5  1.579676e+6
139  1.570722e+6
139.5  1.562907e+6
140  1.555154e+6
140.5  1.546551e+6
141  1.537786e+6
141.5  1.528745e+6
142  1.519780e+6
142.5  1.511314e+6
143  1.502915e+6
143.5  1.494252e+6
144  1.485658e+6
144.5  1.477289e+6
145  1.468986e+6
145.5  1.459702e+6
146  1.450280e+6
146.5  1.442890e+6
147  1.435555e+6
147.5  1.426176e+6
148  1.416876e+6
148.5  1.408608e+6
149  1.400405e+6
149.5  1.391479e+6
150  1.382625e+6
150.5  1.374571e+6
151  1.366382e+6
151.5  1.357561e+6
152  1.348810e+6
152.5  1.340129e+6
153  1.331517e+6
153.5  1.323650e+6
154  1.315841e+6
154.5  1.307275e+6
155  1.298776e+6
155.5  1.290468e+6
156  1.282040e+6
156.5  1.274255e+6
157  1.266527e+6
157.5  1.258222e+6
158  1.249981e+6
158.5  1.242429e+6
159  1.234932e+6
159.5  1.225901e+6
160  1.216945e+6
160.5  1.208937e+6
161  1.200822e+6
161.5  1.193514e+6
162  1.186258e+6
162.5  1.177456e+6
163  1.168726e+6
163.5  1.160914e+6
164  1.153160e+6
164.5  1.145343e+6
165  1.137584e+6
165.5  1.129974e+6
166  1.122266e+6
166.5  1.113800e+6
167  1.105402e+6
167.5  1.098493e+6
168  1.091630e+6
168.5  1.083359e+6
169  1.075155e+6
169.5  1.067844e+6
170  1.060586e+6
170.5  1.053168e+6
171  1.045663e+6
171.5  1.037518e+6
172  1.029438e+6
172.5  1.022336e+6
173  1.015284e+6
173.5  1.007948e+6
174  1.000666e+6
174.5  992978.9
175  985350.4
175.5  977615.9
176  969812
176.5  963471.8
177  957170.9
177.5  949525.1
178  941938.4
178.5  934504.6
179  927126.7
179.5  919711.5
180  912352.9
180.5  905537.3
181  898650.4
181.5  891344.2
182  884092.8
182.5  876842.7
183  869647
183.5  862983.5
184  856365.8
184.5  849322.3
185  842330.9
185.5  835958.5
186  829519.4
186.5  822472
187  815476.9
187.5  808391.5
188  801359.8
188.5  794520.6
189  787731.5
189.5  781031.5
190  774380
190.5  767633.6
191  760837.9
191.5  754517.5
192  748238.8
192.5  741582.9
193  734975.2
193.5  728408.4
194  721889
194.5  715459.6
195  709075.8
195.5  702981.6
196  696837.4
196.5  690343.3
197  683895.7
197.5  676999.6
198  670158.6
198.5  663851
199  657588.1
199.5  651782.1
200  646012.3
200.5  639742.9
201  633436.8
201.5  627175.2
202  620957.7
202.5  614329.8
203  607754.6
203.5  602015.4
204  596312
204.5  590346.2
205  584421.2
205.5  578330.2
206  572208.2
206.5  565715.6
207  559274.3
207.5  553600
208  547960.4
208.5  542082
209  536243.4
209.5  530025.2
210  523855.5
210.5  517929.9
211  511979.2
211.5  506065.2
212  500191.8
212.5  494280.1
213  488410
213.5  482657.5
214  476943.8
214.5  471297.2
215  465688.1
215.5  459530.1
216  453361.4
216.5  447820.2
217  442311.7
217.5  436589.1
218  430904.9
218.5  424948.3
219  419037.7
219.5  413496.6
220  407991.9
220.5  401946.7
221  395896.4
221.5  390395.5
222  384926.3
222.5  378997.8
223  373115
223.5  367546
224  362013.7
224.5  356539.2
225  351100.1
225.5  345111.9
226  339124.5
226.5  333615
227  328136.6
227.5  322271.6
228  316451.7
228.5  310903.6
229  305391.4
229.5  299694.5
230  294041.2
230.5  288295.3
231  282547.1
231.5  276771.8
232  271035.5
232.5  265383.5
233  259767.9
233.5  254001.7
234  248279.7
234.5  242778.6
235  237312.8
235.5  230917.5
236  224536.2
236.5  218473
237  212442.7
237.5  206178.1
238  199961.6
238.5  193934.4
239  187945.7
239.5  181862.2
240  175825.3
240.5  169808
241  163803.7
241.5  157821.6
242  151878.7
242.5  145883.4
243  139934.1
243.5  134127.7
244  128358
244.5  122535.4
245  116757.1
245.5  104775.3
246  92834.77
246.5  80911.31
247  69080.67
247.5  57419.89
248  45818.72
248.5  34230.16
249  22731.39
249.5  11321.6
250  0
