**** COMMENT ****
Inherent filtration included, 0.16 mm Al
**** INPUTS ****
kVp [kV] hvMIN [keV] Dhv [keV]
300  30  0.5
Angle [deg.]
30
t_AIR t_BE t_AL t_CU t_SN t_W t_Ta t_Ti t_C t_Wa [mm]
1000  0  4.18  2.21  0  0  0  0  0  0
Nf P
0.68  0.33
****CALCULATED OUTPUTS ****
Brem[uGy/mAs@1m] Char[uGy/mAs@1m]
170.3519  3.718299
HVL1[cm AL] HVL2[cm AL] HVL1[cmCu] HVL2[cmCu] MeanE[keV] EffEAl[keV] EffECu[keV]
1.845894  1.902607  0.3316074  0.4124718  144.0425  146.9231  144.9039
**** CALCULATED SPECTRUM ****
Energy[keV]  N[keV cm^2 mAs]^-1 @ 1 meter
30  0.0026286
30.5  0.0071053
31  0.0192034
31.5  0.0466401
32  0.1133471
32.5  0.2477374
33  0.5417799
33.5  1.098917
34  2.23017
34.5  4.154613
35  7.74321
35.5  13.52662
36  23.63882
36.5  38.83413
37  63.77553
37.5  100.3156
38  157.8451
38.5  235.4234
39  351.2385
39.5  507.4836
40  733.4369
40.5  1016.694
41  1409.725
41.5  1911.198
42  2591.692
42.5  3406.911
43  4476.907
43.5  5758.651
44  7408.946
44.5  9236.597
45  11517.4
45.5  14206.78
46  17527.45
46.5  21167.52
47  25568.08
47.5  30532.88
48  36467.84
48.5  42711.65
49  50007.14
49.5  57886.3
50  67017.09
50.5  76765.76
51  87945.28
51.5  98696.1
52  110776.5
52.5  124309.7
53  139514.6
53.5  154925.4
54  172060
54.5  191023.1
55  212008.6
55.5  230503.7
56  250641.5
56.5  272475.2
57  296244
57.5  322102
58  5.127772e+6
58.5  373122.1
59  397523.2
59.5  1.002893e+7
60  459861.4
60.5  489739.9
61  521407.3
61.5  549705.8
62  579594.6
62.5  610642.1
63  643410.8
63.5  678340.1
64  715228.1
64.5  745782.8
65  777708.5
65.5  811575.1
66  846985.7
66.5  883519.1
67  9.287163e+6
67.5  951307.4
68  982280.9
68.5  1.024433e+6
69  3.684633e+6
69.5  1.102338e+6
70  863495.4
70.5  886552.1
71  910303.1
71.5  942240.3
72  975372.1
72.5  1.006067e+6
73  1.037525e+6
73.5  1.066794e+6
74  1.096972e+6
74.5  1.126798e+6
75  1.157520e+6
75.5  1.185776e+6
76  1.214808e+6
76.5  1.242415e+6
77  1.270735e+6
77.5  1.298578e+6
78  1.327119e+6
78.5  1.353867e+6
79  1.380883e+6
79.5  1.407132e+6
80  1.433968e+6
80.5  1.459639e+6
81  1.485858e+6
81.5  1.510108e+6
82  1.534841e+6
82.5  1.558939e+6
83  1.583502e+6
83.5  1.604453e+6
84  1.625768e+6
84.5  1.648011e+6
85  1.670241e+6
85.5  1.691014e+6
86  1.712131e+6
86.5  1.731883e+6
87  1.751949e+6
87.5  1.770188e+6
88  1.788702e+6
88.5  1.806293e+6
89  1.824141e+6
89.5  1.841355e+6
90  1.858815e+6
90.5  1.873687e+6
91  1.888334e+6
91.5  1.903944e+6
92  1.919765e+6
92.5  1.932677e+6
93  1.945758e+6
93.5  1.958807e+6
94  1.972025e+6
94.5  1.984447e+6
95  1.997027e+6
95.5  2.006437e+6
96  2.015971e+6
96.5  2.025767e+6
97  2.035257e+6
97.5  2.044658e+6
98  2.054178e+6
98.5  2.063695e+6
99  2.073331e+6
99.5  2.081985e+6
100  2.090748e+6
100.5  2.096235e+6
101  2.101809e+6
101.5  2.107597e+6
102  2.113474e+6
102.5  2.119205e+6
103  2.124598e+6
103.5  2.130204e+6
104  2.135895e+6
104.5  2.139421e+6
105  2.143022e+6
105.5  2.146473e+6
106  2.149997e+6
106.5  2.153463e+6
107  2.157001e+6
107.5  2.157384e+6
108  2.157831e+6
108.5  2.159662e+6
109  2.161152e+6
109.5  2.162480e+6
110  2.163871e+6
110.5  2.165195e+6
111  2.166580e+6
111.5  2.165882e+6
112  2.165243e+6
112.5  2.164438e+6
113  2.163692e+6
113.5  2.161653e+6
114  2.159674e+6
114.5  2.159301e+6
115  2.158600e+6
115.5  2.157825e+6
116  2.157105e+6
116.5  2.154307e+6
117  2.151566e+6
117.5  2.147446e+6
118  2.143386e+6
118.5  2.142586e+6
119  2.141837e+6
119.5  2.139150e+6
120  2.136877e+6
120.5  2.130693e+6
121  2.124577e+6
121.5  2.121823e+6
122  2.119120e+6
122.5  2.114155e+6
123  2.109250e+6
123.5  2.105517e+6
124  2.101838e+6
124.5  2.096973e+6
125  2.092165e+6
125.5  2.086361e+6
126  2.080617e+6
126.5  2.076149e+6
127  2.071405e+6
127.5  2.066713e+6
128  2.062075e+6
128.5  2.056116e+6
129  2.050216e+6
129.5  2.045739e+6
130  2.041312e+6
130.5  2.033438e+6
131  2.025635e+6
131.5  2.021491e+6
132  2.017393e+6
132.5  2.009910e+6
133  2.002189e+6
133.5  1.995661e+6
134  1.989192e+6
134.5  1.981780e+6
135  1.974431e+6
135.5  1.967818e+6
136  1.961261e+6
136.5  1.953976e+6
137  1.946751e+6
137.5  1.940799e+6
138  1.934897e+6
138.5  1.927649e+6
139  1.920184e+6
139.5  1.914169e+6
140  1.908205e+6
140.5  1.901024e+6
141  1.893901e+6
141.5  1.885919e+6
142  1.878001e+6
142.5  1.871244e+6
143  1.864539e+6
143.5  1.856910e+6
144  1.849340e+6
144.5  1.842595e+6
145  1.835650e+6
145.5  1.826950e+6
146  1.818317e+6
146.5  1.812676e+6
147  1.807079e+6
147.5  1.798331e+6
148  1.789652e+6
148.5  1.782330e+6
149  1.775062e+6
149.5  1.766852e+6
150  1.758703e+6
150.5  1.751516e+6
151  1.744154e+6
151.5  1.736038e+6
152  1.727983e+6
152.5  1.719987e+6
153  1.712051e+6
153.5  1.704967e+6
154  1.697934e+6
154.5  1.689897e+6
155  1.681918e+6
155.5  1.674263e+6
156  1.666662e+6
156.5  1.659849e+6
157  1.652878e+6
157.5  1.645126e+6
158  1.637429e+6
158.5  1.630610e+6
159  1.623838e+6
159.5  1.614601e+6
160  1.605434e+6
160.5  1.597919e+6
161  1.590457e+6
161.5  1.584035e+6
162  1.577657e+6
162.5  1.568828e+6
163  1.559879e+6
163.5  1.552534e+6
164  1.545240e+6
164.5  1.537433e+6
165  1.529681e+6
165.5  1.522540e+6
166  1.515447e+6
166.5  1.506909e+6
167  1.498434e+6
167.5  1.492338e+6
168  1.486449e+6
168.5  1.477858e+6
169  1.469331e+6
169.5  1.462450e+6
170  1.455614e+6
170.5  1.448206e+6
171  1.440848e+6
171.5  1.432512e+6
172  1.424237e+6
172.5  1.417725e+6
173  1.411255e+6
173.5  1.403930e+6
174  1.396655e+6
174.5  1.388862e+6
175  1.380975e+6
175.5  1.372935e+6
176  1.364952e+6
176.5  1.359425e+6
177  1.353929e+6
177.5  1.346087e+6
178  1.338300e+6
178.5  1.330767e+6
179  1.323286e+6
179.5  1.315658e+6
180  1.308083e+6
180.5  1.301402e+6
181  1.294631e+6
181.5  1.287216e+6
182  1.279851e+6
182.5  1.272459e+6
183  1.265118e+6
183.5  1.258518e+6
184  1.251959e+6
184.5  1.244758e+6
185  1.237604e+6
185.5  1.231774e+6
186  1.225977e+6
186.5  1.218904e+6
187  1.211759e+6
187.5  1.204132e+6
188  1.196558e+6
188.5  1.189561e+6
189  1.182611e+6
189.5  1.175760e+6
190  1.168953e+6
190.5  1.162121e+6
191  1.155333e+6
191.5  1.149238e+6
192  1.143179e+6
192.5  1.136493e+6
193  1.129747e+6
193.5  1.123028e+6
194  1.116353e+6
194.5  1.109788e+6
195  1.103264e+6
195.5  1.097335e+6
196  1.091441e+6
196.5  1.084969e+6
197  1.078538e+6
197.5  1.071087e+6
198  1.063690e+6
198.5  1.057337e+6
199  1.050934e+6
199.5  1.045239e+6
200  1.039576e+6
200.5  1.033285e+6
201  1.027034e+6
201.5  1.020821e+6
202  1.014647e+6
202.5  1.007500e+6
203  1.000404e+6
203.5  994917
204  989540.5
204.5  983492.1
205  977480.7
205.5  971433.8
206  965424.2
206.5  958501.8
207  951628.6
207.5  946273.8
208  940948.4
208.5  935180.6
209  929447.2
209.5  922778.2
210  916155.9
210.5  910410.1
211  904631.2
211.5  898874.8
212  893153
212.5  887099.4
213  881084.5
213.5  875468.8
214  869886.4
214.5  864389
215  858923.6
215.5  852594
216  846308
216.5  841295.4
217  836252
217.5  830765.9
218  825311.9
218.5  819078.2
219  812887.3
219.5  807576.4
220  802295.7
220.5  796218.7
221  790183.2
221.5  785398.5
222  780638.1
222.5  774605.8
223  768567.7
223.5  763326.2
224  758114.6
224.5  752978.1
225  747870.2
225.5  742011.1
226  736191.7
226.5  731547.8
227  726926.8
227.5  721206.5
228  715524.7
228.5  710482.8
229  705431.4
229.5  699706.4
230  694020
230.5  689103.8
231  684214.4
231.5  679013.2
232  673843.4
232.5  668997.5
233  664178
233.5  658724.4
234  653307
234.5  648454.4
235  643599.5
235.5  638177.5
236  632791.3
236.5  628378.6
237  623986.6
237.5  618652.7
238  613354.1
238.5  608692.8
239  604056.5
239.5  598851.7
240  593681
240.5  588990.2
241  584304.4
241.5  579438.4
242  574600.6
242.5  569435
243  564303.3
243.5  559753
244  555226.6
244.5  550185.2
245  545176.6
245.5  540729.8
246  536306.1
246.5  531219.1
247  526153.6
247.5  521969
248  517802.5
248.5  512819.6
249  507869.3
249.5  502951.2
250  498065
250.5  493699.2
251  489355.7
251.5  484554.5
252  479784.3
252.5  475609.8
253  471449.6
253.5  466609.5
254  461800.4
254.5  456994.5
255  452219.7
255.5  447919
256  443640.1
256.5  438943.4
257  434277.1
257.5  429645
258  425042.6
258.5  420917
259  416812.9
259.5  412080.8
260  407379.4
260.5  402736.3
261  398122.7
261.5  393900.7
262  389699.7
262.5  385141.5
263  380612.3
263.5  376481.2
264  372370.3
264.5  367887.2
265  363441.8
265.5  358815.6
266  354219
266.5  350019.4
267  345839.9
267.5  341321.7
268  336832.4
268.5  332371.7
269  327939.5
269.5  323858.6
270  319797.2
270.5  315338.4
271  310925.9
271.5  306364.9
272  301833
272.5  297624.7
273  293436.5
273.5  288999.4
274  284590.2
274.5  280191.6
275  275821
275.5  271478.1
276  267162.6
276.5  262808.8
277  258506.8
277.5  254118.7
278  249754.6
278.5  245275.7
279  240825.3
279.5  236637.4
280  232469
280.5  228107.9
281  223773.9
281.5  219452.3
282  215158.1
282.5  210434.2
283  205776.7
283.5  200940.8
284  196135.9
284.5  191470.8
285  186830.8
285.5  182112.9
286  177425
286.5  172937.2
287  168469.9
287.5  163871.5
288  159301.6
288.5  154578.5
289  149938.6
289.5  145328.2
290  140747.3
290.5  136407.9
291  132083.7
291.5  127575.5
292  123095.9
292.5  118645.1
293  114222.5
293.5  109936.1
294  105669
294.5  96431.93
295  87384.25
295.5  78389.33
296  69452.55
296.5  60573.66
297  51751.99
297.5  43053.86
298  34385.13
298.5  25705.62
299  17081.86
299.5  8513.461
300  0
