**** COMMENT ****
Inherent filtration included, 0.16 mm Al
**** INPUTS ****
kVp [kV] hvMIN [keV] Dhv [keV]
100  10  0.5
Angle [deg.]
30
t_AIR t_BE t_AL t_CU t_SN t_W t_Ta t_Ti t_C t_Wa [mm]
1000  0  4.04  5.08  0  0  0  0  0  0
Nf P
0.68  0.33
****CALCULATED OUTPUTS ****
Brem[uGy/mAs@1m] Char[uGy/mAs@1m]
0.3204531  0.0046325
HVL1[cm AL] HVL2[cm AL] HVL1[cmCu] HVL2[cmCu] MeanE[keV] EffEAl[keV] EffECu[keV]
1.317977  1.327273  0.1131077  0.1189522  84.16156  83.2158  83.73939
**** CALCULATED SPECTRUM ****
Energy[keV]  N[keV cm^2 mAs]^-1 @ 1 meter
10  0
10.5  0
11  0
11.5  2.052970e-304
12  9.224595e-270
12.5  2.573870e-242
13  7.194020e-215
13.5  6.396233e-195
14  5.716847e-175
14.5  2.055395e-159
15  7.413479e-144
15.5  1.164006e-131
16  1.833497e-119
16.5  6.487352e-110
17  2.299519e-100
17.5  1.184947e-92
18  6.117627e-85
18.5  1.188292e-78
19  2.310490e-72
19.5  3.406041e-67
20  5.027609e-62
20.5  9.024546e-58
21  1.620888e-53
21.5  7.089840e-50
22  3.104111e-46
22.5  3.347229e-43
23  3.610733e-40
23.5  1.521664e-37
24  6.417490e-35
24.5  1.057819e-32
25  1.744050e-30
25.5  1.435116e-28
26  1.181623e-26
26.5  4.829738e-25
27  1.974388e-23
27.5  6.351947e-22
28  2.045363e-20
28.5  3.286738e-19
29  5.284033e-18
29.5  6.687838e-17
30  8.468301e-16
30.5  7.577642e-15
31  6.780957e-14
31.5  4.808479e-13
32  3.411070e-12
32.5  1.915565e-11
33  1.075741e-10
33.5  5.126058e-10
34  2.443467e-9
34.5  9.667136e-9
35  3.824569e-8
35.5  1.315842e-7
36  4.528525e-7
36.5  1.355520e-6
37  4.057321e-6
37.5  0.0000111
38  0.0000302
38.5  0.0000732
39  0.0001777
39.5  0.0004022
40  0.0009108
40.5  0.0018791
41  0.0038767
41.5  0.0076291
42  0.0150171
42.5  0.0275784
43  0.0506426
43.5  0.0887682
44  0.155628
44.5  0.2545442
45  0.4162917
45.5  0.6651616
46  1.063011
46.5  1.621552
47  2.473306
47.5  3.68363
48  5.487174
48.5  7.81022
49  11.11544
49.5  15.4476
50  21.47159
50.5  29.15789
51  39.59061
51.5  51.33748
52  66.57936
52.5  86.34479
53  111.9623
53.5  141.8551
54  179.7526
54.5  227.6341
55  288.2263
55.5  348.5397
56  421.6412
56.5  509.7678
57  616.3839
57.5  745.3362
58  3262.894
58.5  1040.941
59  1201.919
59.5  7099.604
60  1675.7
60.5  1933.885
61  2231.43
61.5  2517.041
62  2839.452
62.5  3201.012
63  3607.869
63.5  4068.723
64  4588.782
64.5  5052.685
65  5562.252
65.5  6127.31
66  6750.186
66.5  7430.497
67  25157.16
67.5  8797.087
68  9464.191
68.5  10414.34
69  18147.53
69.5  12318.63
70  12679.1
70.5  13331.62
71  14013.71
71.5  15040.15
72  16141.99
72.5  17118.4
73  18148.1
73.5  19148.93
74  20204.78
74.5  21261.38
75  22365.34
75.5  23405.2
76  24492.6
76.5  25513.21
77  26565.79
77.5  27598.98
78  28670.57
78.5  29680.85
79  30712.86
79.5  31705.53
80  32727.03
80.5  33677.57
81  34637.61
81.5  35478.17
82  36333.71
82.5  37152.45
83  37966.12
83.5  38592.25
84  39220.05
84.5  39828.07
85  40415.23
85.5  40907.02
86  41391.52
86.5  41718.71
87  42009.04
87.5  42182.9
88  42337.33
88.5  42378.13
89  42367.09
89.5  42251.41
90  42105.46
90.5  41715.1
91  41258.75
91.5  40784.9
92  40269.6
92.5  39469.53
93  38588.85
93.5  37660.45
94  36680.56
94.5  35266.93
95  33748.07
95.5  32073.6
96  30339.63
96.5  28482.31
97  26515.45
97.5  24482.17
98  22378.95
98.5  17124.08
99  11596.04
99.5  5879.865
100  0
