**** COMMENT ****
Inherent filtration included, 0.16 mm Al
**** INPUTS ****
kVp [kV] hvMIN [keV] Dhv [keV]
120  12  0.5
Angle [deg.]
30
t_AIR t_BE t_AL t_CU t_SN t_W t_Ta t_Ti t_C t_Wa [mm]
1000  0  3.99  5.01  1  0  0  0  0  0
Nf P
0.68  0.33
****CALCULATED OUTPUTS ****
Brem[uGy/mAs@1m] Char[uGy/mAs@1m]
0.3766719  0.0002734
HVL1[cm AL] HVL2[cm AL] HVL1[cmCu] HVL2[cmCu] MeanE[keV] EffEAl[keV] EffECu[keV]
1.516448  1.521961  0.1729702  0.1794075  101.3576  100.7088  101.1949
**** CALCULATED SPECTRUM ****
Energy[keV]  N[keV cm^2 mAs]^-1 @ 1 meter
12  7.145905e-293
12.5  3.246092e-263
13  1.477004e-233
13.5  6.314995e-212
14  2.717423e-190
14.5  1.940820e-173
15  1.391400e-156
15.5  2.240244e-143
16  3.621506e-130
16.5  8.557602e-120
17  2.029328e-109
17.5  4.600474e-101
18  1.045347e-92
18.5  6.970548e-86
19  4.656852e-79
19.5  1.823269e-73
20  7.144327e-68
20.5  3.024752e-63
21  1.282266e-58
21.5  1.123445e-54
22  9.856499e-51
22.5  1.942887e-47
23  3.833336e-44
23.5  2.680690e-41
24  1.876156e-38
24.5  4.830070e-36
25  1.243747e-33
25.5  1.445582e-31
26  1.681250e-29
26.5  9.587198e-28
27  5.466279e-26
27.5  2.328706e-24
28  9.925802e-23
28.5  2.041052e-21
29  4.200321e-20
29.5  4.610033e-30
30  1.692206e-28
30.5  4.251466e-27
31  1.068570e-25
31.5  2.058275e-24
32  3.964109e-23
32.5  5.635246e-22
33  8.013757e-21
33.5  9.342951e-20
34  1.089773e-18
34.5  9.472669e-18
35  8.236574e-17
35.5  6.014804e-16
36  4.393652e-15
36.5  2.696630e-14
37  1.654953e-13
37.5  8.300065e-13
38  4.163835e-12
38.5  1.795437e-11
39  7.739471e-11
39.5  2.895430e-10
40  1.083478e-9
40.5  3.437988e-9
41  1.091388e-8
41.5  3.305114e-8
42  1.001128e-7
42.5  2.632176e-7
43  6.921997e-7
43.5  1.738846e-6
44  4.367113e-6
44.5  9.874346e-6
45  0.0000223
45.5  0.0000476
46  0.0001014
46.5  0.000199
47  0.0003904
47.5  0.0007483
48  0.0014349
48.5  0.0025351
49  0.0044796
49.5  0.0077318
50  0.013347
50.5  0.0217152
51  0.0353177
51.5  0.0561071
52  0.0891469
52.5  0.1375691
53  0.212358
53.5  0.3167597
54  0.4725521
54.5  0.6943829
55  1.02048
55.5  1.428094
56  1.998003
56.5  2.754883
57  3.798939
57.5  5.219866
58  37.979
58.5  9.315083
59  12.09768
59.5  109.155
60  21.01611
60.5  26.98622
61  34.6467
61.5  43.18209
62  53.82558
62.5  66.58646
63  82.33888
63.5  101.5045
64  125.1428
64.5  150.1569
65  180.2115
65.5  214.7572
66  255.9469
66.5  303.755
67  1517.845
67.5  416.9241
68  482.0016
68.5  567.85
69  1263.273
69.5  770.6397
70  832.188
70.5  931.239
71  1042.145
71.5  1185.985
72  1349.762
72.5  1518.802
73  1708.675
73.5  1906.304
74  2126.904
74.5  2359.532
75  2616.23
75.5  2875.704
76  3161.059
76.5  3460.727
77  3789.396
77.5  4138.391
78  4519.703
78.5  4904.132
79  5321.456
79.5  5740.646
80  6190.389
80.5  6659.962
81  7165.359
81.5  7650.836
82  8168.848
82.5  8745.911
83  9363.924
83.5  9902.856
84  10475.92
84.5  11078.25
85  11715.32
85.5  12361.68
86  13043.78
86.5  13735.3
87  14453.27
87.5  15117.84
88  15812.87
88.5  16531.28
89  17283.41
89.5  18025.86
90  18799.81
90.5  19481.29
91  20186.96
91.5  20926.94
92  21680.88
92.5  22397.29
93  23136.37
93.5  23899.46
94  24680.85
94.5  25336.38
95  26007.58
95.5  26621.33
96  27247.59
96.5  27871.92
97  28497.68
97.5  29135.49
98  29784.46
98.5  30448.29
99  31086.1
99.5  31564.12
100  32044.72
100.5  32554.02
101  33064.65
101.5  33419.35
102  33770.8
102.5  34115.62
103  34456.17
103.5  34779.73
104  35059.63
104.5  35120.95
105  35171.02
105.5  35339.55
106  35462.71
106.5  35407.19
107  35335.24
107.5  35278.96
108  35204.53
108.5  34936.03
109  34624.14
109.5  34290.93
110  33934.13
110.5  33553.97
111  33035.16
111.5  32413.25
112  31762.76
112.5  31084.16
113  30308.06
113.5  29300.62
114  28253.87
114.5  27083.73
115  25879.01
115.5  24718.79
116  23451.38
116.5  22005.06
117  20525.35
117.5  19071.86
118  15884.39
118.5  12069.47
119  8152.084
119.5  4120.758
120  0
