**** COMMENT ****
Inherent filtration included, 0.16 mm Al
**** INPUTS ****
kVp [kV] hvMIN [keV] Dhv [keV]
150  15  0.5
Angle [deg.]
30
t_AIR t_BE t_AL t_CU t_SN t_W t_Ta t_Ti t_C t_Wa [mm]
1000  0  4  0  2.5  0  0  0  0  0
Nf P
0.68  0.33
****CALCULATED OUTPUTS ****
Brem[uGy/mAs@1m] Char[uGy/mAs@1m]
2.917667  0.0005589
HVL1[cm AL] HVL2[cm AL] HVL1[cmCu] HVL2[cmCu] MeanE[keV] EffEAl[keV] EffECu[keV]
1.669062  1.675881  0.2391018  0.2505478  119.2776  119.1884  119.091
**** CALCULATED SPECTRUM ****
Energy[keV]  N[keV cm^2 mAs]^-1 @ 1 meter
15  2.470250e-34
15.5  4.672085e-31
16  8.874675e-28
16.5  3.908414e-25
17  1.728011e-22
17.5  2.034000e-20
18  2.401453e-18
18.5  1.241869e-16
19  6.432898e-15
19.5  1.485090e-13
20  3.435316e-12
20.5  5.192603e-11
21  7.861697e-10
21.5  7.186164e-9
22  6.573184e-8
22.5  4.404123e-7
23  2.954162e-6
23.5  0.0000146
24  0.0000723
24.5  0.0002895
25  0.0011591
25.5  0.003482
26  0.010468
26.5  0.0292462
27  0.0817619
27.5  0.196836
28  0.4738861
28.5  1.010082
29  2.154095
29.5  5.388692e-28
30  8.714478e-27
30.5  1.278521e-25
31  1.875648e-24
31.5  2.496895e-23
32  3.325219e-22
32.5  3.665640e-21
33  4.042394e-20
33.5  4.048444e-19
34  4.054100e-18
34.5  3.071710e-17
35  2.328116e-16
35.5  1.604566e-15
36  1.106214e-14
36.5  6.941082e-14
37  4.354716e-13
37.5  2.071603e-12
38  9.857550e-12
38.5  4.267982e-11
39  1.848353e-10
39.5  6.659123e-10
40  2.398762e-9
40.5  7.182915e-9
41  2.151359e-8
41.5  6.431378e-8
42  1.923041e-7
42.5  4.784326e-7
43  1.190110e-6
43.5  2.957091e-6
44  7.348989e-6
44.5  0.0000166
45  0.0000377
45.5  0.000078
46  0.0001611
46.5  0.0003036
47  0.000572
47.5  0.0010766
48  0.0020268
48.5  0.0034828
49  0.0059837
49.5  0.010269
50  0.0176262
50.5  0.0275982
51  0.0432182
51.5  0.0714574
52  0.1181288
52.5  0.1815202
53  0.2789673
53.5  0.4169394
54  0.6232316
54.5  0.8977499
55  1.292972
55.5  1.844257
56  2.630914
56.5  3.61841
57  4.977143
57.5  6.784589
58  68.42378
58.5  12.25594
59  16.24605
59.5  206.8798
60  27.50849
60.5  35.45699
61  45.70693
61.5  57.85887
62  73.24894
62.5  91.00771
63  113.083
63.5  139.3233
64  171.6235
64.5  209.2698
65  255.1973
65.5  305.7795
66  366.42
66.5  434.8636
67  2886.409
67.5  606.7295
68  713.4664
68.5  831.4174
69  2188.14
69.5  1128.954
70  1193.985
70.5  1368.078
71  1567.668
71.5  1780.136
72  2021.542
72.5  2296.04
73  2607.372
73.5  2933.045
74  3299.611
74.5  3678.259
75  4100.619
75.5  4527.333
76  4997.598
76.5  5519.083
77  6095.345
77.5  6732.575
78  7436.85
78.5  8134.826
79  8896.754
79.5  9642.07
80  10450.38
80.5  11325.76
81  12275.1
81.5  13190.08
82  14170.73
82.5  15355.66
83  16640.49
83.5  17697.55
84  18826.93
84.5  20027.54
85  21305.67
85.5  22666.53
86  24115.36
86.5  25657.89
87  27300.24
87.5  28780.5
88  30335.3
88.5  31958.3
89  33669.44
89.5  35490.56
90  37411.55
90.5  39057.81
91  40768.59
91.5  42576.54
92  44466.14
92.5  46413.26
93  48447.19
93.5  50568.55
94  52772.12
94.5  54598.53
95  56489.73
95.5  58417.03
96  60411.69
96.5  62469.1
97  64583.01
97.5  66770.67
98  69033.99
98.5  71371.3
99  73789.3
99.5  75632.59
100  77504.93
100.5  80105.97
101  82795.68
101.5  84803.77
102  86882.85
102.5  88953.77
103  91075.11
103.5  93253.67
104  95485.3
104.5  96876.08
105  98287.95
105.5  100624.3
106  102991
106.5  104448.7
107  105927.2
107.5  108360.9
108  110850.6
108.5  112403.6
109  113948.7
109.5  115516.1
110  117104.2
110.5  118706.2
111  120329
111.5  121950.7
112  123559.7
112.5  125189.9
113  126839.4
113.5  128431.2
114  130040.5
114.5  130520
115  130961.6
115.5  132599.1
116  134252.9
116.5  134686.6
117  135117.3
117.5  136682.6
118  138220.1
118.5  138563.8
119  138901.8
119.5  139242.2
120  139576.3
120.5  139774.6
121  139921.5
121.5  140134.8
122  140338.7
122.5  141050.4
123  141755.3
123.5  141788.8
124  141762.7
124.5  141664.5
125  141552.2
125.5  141357.4
126  141147.8
126.5  140785.2
127  140355
127.5  139778.8
128  139184.8
128.5  138501.5
129  137800.4
129.5  137049.2
130  136222.3
130.5  135171.7
131  134101.1
131.5  132972.6
132  131823.6
132.5  130560.6
133  129215.4
133.5  127680.9
134  126124.8
134.5  124600.8
135  123053
135.5  121257.1
136  119373.2
136.5  117295.7
137  115197.2
137.5  113145.2
138  111068.8
138.5  108687.7
139  106214.7
139.5  103774.9
140  101306.5
140.5  98669.24
141  96009.87
141.5  92848.68
142  89578.89
142.5  86154.13
143  82707.17
143.5  79283.83
144  75833.6
144.5  72236.57
145  68536.74
145.5  64812.38
146  61063.1
146.5  57270.51
147  53454.56
147.5  44797.64
148  35928.15
148.5  27029.3
149  18075.58
149.5  9061.207
150  0
