**** COMMENT ****
Inherent filtration included, 0.16 mm Al
**** INPUTS ****
kVp [kV] hvMIN [keV] Dhv [keV]
60  6  0.5
Angle [deg.]
30
t_AIR t_BE t_AL t_CU t_SN t_W t_Ta t_Ti t_C t_Wa [mm]
1000  0  4.02  0.61  0  0  0  0  0  0
Nf P
0.68  0.33
****CALCULATED OUTPUTS ****
Brem[uGy/mAs@1m] Char[uGy/mAs@1m]
1.421058  0
HVL1[cm AL] HVL2[cm AL] HVL1[cmCu] HVL2[cmCu] MeanE[keV] EffEAl[keV] EffECu[keV]
0.5950942  0.6301212  0.0237896  0.0266518  48.11596  45.82127  46.20079
**** CALCULATED SPECTRUM ****
Energy[keV]  N[keV cm^2 mAs]^-1 @ 1 meter
6  3.316622e-76
6.5  1.487137e-61
7  6.773125e-47
7.5  2.011727e-38
8  6.024502e-30
8.5  1.047896e-24
9  3.392015e-76
9.5  1.101794e-66
10  3.599436e-57
10.5  2.933153e-50
11  2.427712e-43
11.5  2.917939e-38
12  3.517523e-33
12.5  3.171362e-29
13  2.862873e-25
13.5  2.213395e-22
14  1.714505e-19
14.5  2.951997e-17
15  5.089579e-15
15.5  2.840815e-13
16  1.589454e-11
16.5  3.659197e-10
17  8.444435e-9
17.5  1.044607e-7
18  1.293671e-6
18.5  9.977694e-6
19  0.000077
19.5  0.0004088
20  0.0021715
20.5  0.0085247
21  0.0334697
21.5  0.1065878
22  0.3398496
22.5  0.8880473
23  2.323941
23.5  5.294957
24  12.07671
24.5  23.99141
25  47.67928
25.5  86.35794
26  156.3802
26.5  256.6255
27  421.0356
27.5  664.5143
28  1049.643
28.5  1509.353
29  2172.866
29.5  3007.45
30  4163.626
30.5  5503.516
31  7271.978
31.5  9312.055
32  11919.1
32.5  14760.62
33  18270.66
33.5  22076.68
34  26691.36
34.5  31419.21
35  37020.02
35.5  42746.04
36  49361.09
36.5  55908.26
37  63287.66
37.5  70736.21
38  79003.41
38.5  86825.38
39  95348.37
39.5  103718
40  112862.4
40.5  121078.4
41  130004.3
41.5  138429.4
42  147469.5
42.5  155430.2
43  163772.7
43.5  171510.7
44  179407.1
44.5  185938.4
45  192438.2
45.5  198414
46  204569.4
46.5  209197
47  214073.4
47.5  217768.6
48  221396.2
48.5  223667.8
49  225579.6
49.5  226604.7
50  227093.2
50.5  226719.5
51  225626.8
51.5  222866.6
52  219786.8
52.5  215923.7
53  212031.6
53.5  206405.7
54  200409.9
54.5  193479.5
55  185766.2
55.5  176542.7
56  166227.5
56.5  155371.5
57  141974.8
57.5  128028.2
58  113849.4
58.5  97522.33
59  74448.38
59.5  37542.99
60  0
