**** COMMENT ****
Inherent filtration included, 0.16 mm Al
**** INPUTS ****
kVp [kV] hvMIN [keV] Dhv [keV]
80  8  0.5
Angle [deg.]
30
t_AIR t_BE t_AL t_CU t_SN t_W t_Ta t_Ti t_C t_Wa [mm]
1000  0  3.99  2.05  0  0  0  0  0  0
Nf P
0.68  0.33
****CALCULATED OUTPUTS ****
Brem[uGy/mAs@1m] Char[uGy/mAs@1m]
0.6568183  0.0340376
HVL1[cm AL] HVL2[cm AL] HVL1[cmCu] HVL2[cmCu] MeanE[keV] EffEAl[keV] EffECu[keV]
1.01125  1.029596  0.0594959  0.0639526  65.79594  64.2837  64.7948
**** CALCULATED SPECTRUM ****
Energy[keV]  N[keV cm^2 mAs]^-1 @ 1 meter
8  3.220399e-59
8.5  6.690678e-50
9  3.073027e-231
9.5  1.205325e-204
10  4.762921e-178
10.5  2.775512e-158
11  1.658342e-138
11.5  6.539347e-124
12  2.585194e-109
12.5  8.496700e-98
13  2.800474e-86
13.5  6.751187e-78
14  1.634067e-69
14.5  5.485158e-63
15  1.845037e-56
15.5  2.391336e-51
16  3.106146e-46
16.5  3.104048e-42
17  3.105440e-38
17.5  5.213864e-35
18  8.773536e-32
18.5  3.719680e-29
19  1.579096e-26
19.5  2.267095e-24
20  3.256489e-22
20.5  1.932895e-20
21  1.148675e-18
21.5  3.756155e-17
22  1.229338e-15
22.5  2.240682e-14
23  4.084098e-13
23.5  5.010123e-12
24  6.149045e-11
24.5  5.082942e-10
25  4.201845e-9
25.5  2.605749e-8
26  1.617731e-7
26.5  7.491059e-7
27  3.470712e-6
27.5  0.0000145
28  0.0000606
28.5  0.0001901
29  0.0005968
29.5  0.001689
30  0.0047822
30.5  0.0117352
31  0.0287893
31.5  0.0641266
32  0.1429393
32.5  0.2887367
33  0.5834615
33.5  1.100077
34  2.075767
34.5  3.622504
35  6.323852
35.5  10.41805
36  17.16006
36.5  26.67152
37  41.47215
37.5  61.98728
38  92.67645
38.5  132.0174
39  187.9819
39.5  260.1247
40  359.9677
40.5  479.3206
41  638.075
41.5  832.4475
42  1086.695
42.5  1377.809
43  1747.279
43.5  2173.4
44  2702.656
44.5  3266.027
45  3947.96
45.5  4723.607
46  5652.648
46.5  6636.362
47  7786.868
47.5  9043.895
48  10503.05
48.5  11979.87
49  13659.09
49.5  15411.76
50  17397.44
50.5  19437.03
51  21718.39
51.5  23812.24
52  26096.6
52.5  28601.94
53  31352.55
53.5  34014.93
54  36906.49
54.5  40029.76
55  43382.84
55.5  46137.35
56  49055.85
56.5  52165.33
57  55440
57.5  58899.07
58  108096.4
58.5  65229.38
59  67972.13
59.5  161925.5
60  75011.16
60.5  78039.87
61  81186.16
61.5  83600.44
62  86079.87
62.5  88596.02
63  91059.2
63.5  93623.28
64  96208.43
64.5  97832.26
65  99382
65.5  100946.4
66  102528.5
66.5  103909.8
67  178721.9
67.5  105586.3
68  105723.2
68.5  106786.8
69  130435.7
69.5  107490.2
70  104904.5
70.5  103581.7
71  101889.3
71.5  100996.2
72  99928.83
72.5  98103.03
73  96016.61
73.5  93539.55
74  90844.09
74.5  87663.09
75  84348.45
75.5  80197.14
76  75390.08
76.5  70325.63
77  65096.02
77.5  59365.98
78  53477.67
78.5  45887.78
79  30949.64
79.5  15642.68
80  0
