**** COMMENT ****
Inherent filtration included, 0.16 mm Al
**** INPUTS ****
kVp [kV] hvMIN [keV] Dhv [keV]
150  15  0.5
Angle [deg.]
30
t_AIR t_BE t_AL t_CU t_SN t_W t_Ta t_Ti t_C t_Wa [mm]
1000  0  4.72  0  0  0  0  0  0  0
Nf P
0.68  0.33
****CALCULATED OUTPUTS ****
Brem[uGy/mAs@1m] Char[uGy/mAs@1m]
127.9977  14.639
HVL1[cm AL] HVL2[cm AL] HVL1[cmCu] HVL2[cmCu] MeanE[keV] EffEAl[keV] EffECu[keV]
0.6350064  0.9117899  0.0309246  0.0686432  63.7768  47.44792  50.77447
**** CALCULATED SPECTRUM ****
Energy[keV]  N[keV cm^2 mAs]^-1 @ 1 meter
15  508.0106
15.5  1271.471
16  3196.038
16.5  6495.445
17  13252.68
17.5  23090.61
18  40353.95
18.5  63172.78
19  99061.16
19.5  141995.2
20  203944.2
20.5  273191.4
21  366552
21.5  465259.1
22  590951.7
22.5  719005.6
23  875797.7
23.5  1.029627e+6
24  1.211644e+6
24.5  1.377229e+6
25  1.565802e+6
25.5  1.753711e+6
26  1.965607e+6
26.5  2.156474e+6
27  2.367394e+6
27.5  2.561824e+6
28  2.772325e+6
28.5  2.958206e+6
29  3.158187e+6
29.5  3.324328e+6
30  3.500850e+6
30.5  3.661113e+6
31  3.828508e+6
31.5  3.977386e+6
32  4.133679e+6
32.5  4.264698e+6
33  4.401485e+6
33.5  4.516213e+6
34  4.633472e+6
34.5  4.727957e+6
35  4.825911e+6
35.5  4.905530e+6
36  4.987941e+6
36.5  5.054680e+6
37  5.121658e+6
37.5  5.173968e+6
38  5.228203e+6
38.5  5.264352e+6
39  5.302079e+6
39.5  5.332123e+6
40  5.361572e+6
40.5  5.378064e+6
41  5.395832e+6
41.5  5.401858e+6
42  5.409055e+6
42.5  5.409164e+6
43  5.408451e+6
43.5  5.400608e+6
44  5.393836e+6
44.5  5.379260e+6
45  5.365728e+6
45.5  5.349094e+6
46  5.331672e+6
46.5  5.307485e+6
47  5.284317e+6
47.5  5.254147e+6
48  5.225010e+6
48.5  5.196757e+6
49  5.167825e+6
49.5  5.132360e+6
50  5.097918e+6
50.5  5.060614e+6
51  5.024319e+6
51.5  4.985322e+6
52  4.945817e+6
52.5  4.906704e+6
53  4.868565e+6
53.5  4.827988e+6
54  4.788378e+6
54.5  4.746476e+6
55  4.704160e+6
55.5  4.659263e+6
56  4.615361e+6
56.5  4.571863e+6
57  4.529311e+6
57.5  4.487666e+6
58  3.289644e+7
58.5  4.401457e+6
59  4.358181e+6
59.5  5.414084e+7
60  4.270009e+6
60.5  4.225076e+6
61  4.181051e+6
61.5  4.137907e+6
62  4.095619e+6
62.5  4.051336e+6
63  4.007921e+6
63.5  3.967877e+6
64  3.927568e+6
64.5  3.882844e+6
65  3.838981e+6
65.5  3.798601e+6
66  3.758978e+6
66.5  3.717451e+6
67  2.056135e+7
67.5  3.634618e+6
68  3.594240e+6
68.5  3.554602e+6
69  7.939356e+6
69.5  3.476358e+6
70  3.120223e+6
70.5  3.089800e+6
71  3.059894e+6
71.5  3.030740e+6
72  3.002076e+6
72.5  2.973853e+6
73  2.945400e+6
73.5  2.916282e+6
74  2.887640e+6
74.5  2.859305e+6
75  2.831427e+6
75.5  2.801964e+6
76  2.772333e+6
76.5  2.744463e+6
77  2.717033e+6
77.5  2.690197e+6
78  2.663779e+6
78.5  2.635662e+6
79  2.607387e+6
79.5  2.579556e+6
80  2.552159e+6
80.5  2.524897e+6
81  2.498055e+6
81.5  2.473067e+6
82  2.447890e+6
82.5  2.421414e+6
83  2.395341e+6
83.5  2.368152e+6
84  2.341916e+6
84.5  2.316098e+6
85  2.290668e+6
85.5  2.265632e+6
86  2.240968e+6
86.5  2.216666e+6
87  2.192720e+6
87.5  2.168808e+6
88  2.144750e+6
88.5  2.119707e+6
89  2.095037e+6
89.5  2.071927e+6
90  2.049148e+6
90.5  2.025384e+6
91  2.001508e+6
91.5  1.979138e+6
92  1.957084e+6
92.5  1.933990e+6
93  1.911229e+6
93.5  1.888672e+6
94  1.866004e+6
94.5  1.844725e+6
95  1.823740e+6
95.5  1.801910e+6
96  1.780390e+6
96.5  1.758975e+6
97  1.737453e+6
97.5  1.716252e+6
98  1.695347e+6
98.5  1.674633e+6
99  1.654207e+6
99.5  1.634995e+6
100  1.615651e+6
100.5  1.595452e+6
101  1.575531e+6
101.5  1.555976e+6
102  1.537060e+6
102.5  1.517364e+6
103  1.497938e+6
103.5  1.478866e+6
104  1.460051e+6
104.5  1.441403e+6
105  1.423004e+6
105.5  1.404680e+6
106  1.386254e+6
106.5  1.367992e+6
107  1.349973e+6
107.5  1.331425e+6
108  1.313133e+6
108.5  1.295651e+6
109  1.278069e+6
109.5  1.260737e+6
110  1.243632e+6
110.5  1.226675e+6
111  1.209940e+6
111.5  1.193204e+6
112  1.176372e+6
112.5  1.159776e+6
113  1.143394e+6
113.5  1.126438e+6
114  1.109712e+6
114.5  1.093740e+6
115  1.077672e+6
115.5  1.061745e+6
116  1.046021e+6
116.5  1.030497e+6
117  1.015170e+6
117.5  999161.7
118  983080.1
118.5  967771.6
119  952656.6
119.5  937788.3
120  923105.2
120.5  907676.5
121  892176.2
121.5  877440.5
122  862888.2
122.5  848534.5
123  834358.1
123.5  819442.7
124  804455.3
124.5  790138.6
125  775998.7
125.5  761593.4
126  747375.5
126.5  733366.1
127  719268.1
127.5  705342.6
128  691587.1
128.5  677584.2
129  663763
129.5  650032.4
130  636213.1
130.5  622144
131  608258.3
131.5  594986.9
132  581873.1
132.5  567933.8
133  553924.6
133.5  540441.5
134  527120.4
134.5  513662.1
135  500376
135.5  486852.8
136  473242.8
136.5  459515.7
137  445965.5
137.5  432891.2
138  419970
138.5  406113.5
139  392186.7
139.5  378690.2
140  365352.8
140.5  351961.2
141  338740.3
141.5  324046.2
142  309255.2
142.5  294457.2
143  279849.2
143.5  265608.8
144  251534
144.5  237206.6
145  222806.5
145.5  208591.8
146  194559.7
146.5  180833.6
147  167265.6
147.5  138902
148  110387.5
148.5  82298.85
149  54541.23
149.5  27092.59
150  0
