**** COMMENT ****
Inherent filtration included, 0.16 mm Al
**** INPUTS ****
kVp [kV] hvMIN [keV] Dhv [keV]
40  4  0.5
Angle [deg.]
30
t_AIR t_BE t_AL t_CU t_SN t_W t_Ta t_Ti t_C t_Wa [mm]
1000  0  2.7  0  0  0  0  0  0  0
Nf P
0.68  0.33
****CALCULATED OUTPUTS ****
Brem[uGy/mAs@1m] Char[uGy/mAs@1m]
16.60153  0
HVL1[cm AL] HVL2[cm AL] HVL1[cmCu] HVL2[cmCu] MeanE[keV] EffEAl[keV] EffECu[keV]
0.1409307  0.1749449  0.0043552  0.0054619  28.36305  25.09677  25.23024
**** CALCULATED SPECTRUM ****
Energy[keV]  N[keV cm^2 mAs]^-1 @ 1 meter
4  2.403218e-111
4.5  6.485981e-84
5  1.834680e-56
5.5  1.117259e-43
6  6.953416e-31
6.5  3.365325e-24
7  1.643441e-17
7.5  1.228723e-13
8  9.251678e-10
8.5  2.139641e-7
9  0.0000498
9.5  0.0016753
10  0.0566227
10.5  0.5401285
11  5.180492
11.5  25.86213
12  129.4723
12.5  407.4958
13  1285.853
13.5  3009.799
14  7059.327
14.5  13263.56
15  24925.47
15.5  40213.72
16  64998.69
16.5  93158.23
17  133795.9
17.5  175813.1
18  231253.5
18.5  286152.1
19  353883.2
19.5  416683.6
20  490966.4
20.5  556503.9
21  631416.1
21.5  694179.3
22  763494.3
22.5  821091.9
23  882076.5
23.5  929820.4
24  980415.2
24.5  1.013601e+6
25  1.048509e+6
25.5  1.074644e+6
26  1.101347e+6
26.5  1.116377e+6
27  1.129529e+6
27.5  1.133890e+6
28  1.138072e+6
28.5  1.131813e+6
29  1.125724e+6
29.5  1.108780e+6
30  1.091005e+6
30.5  1.069260e+6
31  1.044498e+6
31.5  1.015983e+6
32  987072.6
32.5  951701
33  916525.4
33.5  875544.4
34  833363.5
34.5  789318
35  741403.6
35.5  691254.5
36  640750.7
36.5  584883
37  529117
37.5  468595.9
38  401495
38.5  333777.8
39  262280.5
39.5  147371.3
40  0
