**** COMMENT ****
Inherent filtration included, 0.16 mm Al
**** INPUTS ****
kVp [kV] hvMIN [keV] Dhv [keV]
50  5  0.5
Angle [deg.]
30
t_AIR t_BE t_AL t_CU t_SN t_W t_Ta t_Ti t_C t_Wa [mm]
1000  0  2.59  0  0  0  0  0  0  0
Nf P
0.68  0.33
****CALCULATED OUTPUTS ****
Brem[uGy/mAs@1m] Char[uGy/mAs@1m]
30.89279  0
HVL1[cm AL] HVL2[cm AL] HVL1[cmCu] HVL2[cmCu] MeanE[keV] EffEAl[keV] EffECu[keV]
0.1707711  0.2275953  0.0053585  0.0073883  32.2173  26.91684  27.1754
**** CALCULATED SPECTRUM ****
Energy[keV]  N[keV cm^2 mAs]^-1 @ 1 meter
5  5.511436e-54
5.5  1.084734e-41
6  2.190678e-29
6.5  5.911312e-23
7  1.615628e-16
7.5  8.645995e-13
8  4.659653e-9
8.5  8.813158e-7
9  0.0001675
9.5  0.0049571
10  0.1471995
10.5  1.244429
11  10.61768
11.5  49.51557
12  231.4193
12.5  699.1632
13  2115.449
13.5  4840.182
14  11109.65
14.5  20528.33
15  38002.05
15.5  60703.48
16  97058.29
16.5  138319.4
17  197260.7
17.5  258372.6
18  338598.1
18.5  418085.6
19  516441.4
19.5  608243.6
20  716576
20.5  813759.2
21  924315.2
21.5  1.019654e+6
22  1.124976e+6
22.5  1.214119e+6
23  1.310412e+6
23.5  1.388768e+6
24  1.471817e+6
24.5  1.531924e+6
25  1.594402e+6
25.5  1.647349e+6
26  1.701873e+6
26.5  1.739345e+6
27  1.777357e+6
27.5  1.802267e+6
28  1.829547e+6
28.5  1.841458e+6
29  1.853911e+6
29.5  1.853023e+6
30  1.851540e+6
30.5  1.843520e+6
31  1.834841e+6
31.5  1.820449e+6
32  1.805369e+6
32.5  1.783326e+6
33  1.760652e+6
33.5  1.732488e+6
34  1.703771e+6
34.5  1.670760e+6
35  1.637285e+6
35.5  1.600826e+6
36  1.563966e+6
36.5  1.524175e+6
37  1.484064e+6
37.5  1.441882e+6
38  1.399444e+6
38.5  1.354764e+6
39  1.309921e+6
39.5  1.264342e+6
40  1.218607e+6
40.5  1.171190e+6
41  1.123693e+6
41.5  1.074861e+6
42  1.025996e+6
42.5  976210.6
43  926406.6
43.5  875433.9
44  824458
44.5  772029.6
45  719623.6
45.5  665687.3
46  611764.4
46.5  555754.3
47  499740.8
47.5  437168
48  374703.7
48.5  313298.7
49  251361.5
49.5  125023.9
50  0
