**** COMMENT ****
Inherent filtration included, 0.16 mm Al
**** INPUTS ****
kVp [kV] hvMIN [keV] Dhv [keV]
60  6  0.5
Angle [deg.]
30
t_AIR t_BE t_AL t_CU t_SN t_W t_Ta t_Ti t_C t_Wa [mm]
1000  0  2.88  0  0  0  0  0  0  0
Nf P
0.68  0.33
****CALCULATED OUTPUTS ****
Brem[uGy/mAs@1m] Char[uGy/mAs@1m]
39.82962  0
HVL1[cm AL] HVL2[cm AL] HVL1[cmCu] HVL2[cmCu] MeanE[keV] EffEAl[keV] EffECu[keV]
0.212194  0.2929249  0.0068134  0.0100616  36.28005  29.20158  29.58721
**** CALCULATED SPECTRUM ****
Energy[keV]  N[keV cm^2 mAs]^-1 @ 1 meter
6  2.679815e-33
6.5  3.656991e-26
7  5.069043e-19
7.5  7.004275e-15
8  9.758259e-11
8.5  3.313976e-8
9  0.0000113
9.5  0.0004904
10  0.021381
10.5  0.2258923
11  2.424027
11.5  13.43971
12  74.73502
12.5  257.1484
13  885.9125
13.5  2247.522
14  5712.681
14.5  11428.27
15  22893.37
15.5  38906.9
16  66280.72
16.5  99169.7
17  148736.5
17.5  202608.5
18  276303.6
18.5  352616.2
19  450136
19.5  545075
20  660139.3
20.5  767387.5
21  892143.3
21.5  1.003456e+6
22  1.130018e+6
22.5  1.240118e+6
23  1.362950e+6
23.5  1.466092e+6
24  1.578670e+6
24.5  1.664400e+6
25  1.755459e+6
25.5  1.837234e+6
26  1.922406e+6
26.5  1.987809e+6
27  2.054969e+6
27.5  2.106724e+6
28  2.161531e+6
28.5  2.198211e+6
29  2.238052e+6
29.5  2.258392e+6
30  2.279484e+6
30.5  2.292133e+6
31  2.304024e+6
31.5  2.309499e+6
32  2.313948e+6
32.5  2.309172e+6
33  2.303284e+6
33.5  2.289169e+6
34  2.276490e+6
34.5  2.255298e+6
35  2.236448e+6
35.5  2.210990e+6
36  2.185971e+6
36.5  2.156882e+6
37  2.126964e+6
37.5  2.095022e+6
38  2.062045e+6
38.5  2.026156e+6
39  1.989360e+6
39.5  1.951292e+6
40  1.914633e+6
40.5  1.873639e+6
41  1.835100e+6
41.5  1.793030e+6
42  1.752743e+6
42.5  1.709632e+6
43  1.667094e+6
43.5  1.625056e+6
44  1.582250e+6
44.5  1.539421e+6
45  1.495658e+6
45.5  1.451844e+6
46  1.409271e+6
46.5  1.364656e+6
47  1.322343e+6
47.5  1.277648e+6
48  1.233730e+6
48.5  1.190314e+6
49  1.146479e+6
49.5  1.103223e+6
50  1.059076e+6
50.5  1.015767e+6
51  971132
51.5  926734.1
52  882946.7
52.5  838023
53  795021.8
53.5  749853.5
54  705424.2
54.5  659947.5
55  614022.6
55.5  568657.9
56  521780.7
56.5  475269.7
57  423217.5
57.5  371913.5
58  322292.9
58.5  270550.5
59  202406.2
59.5  99770.38
60  0
