**** COMMENT ****
Inherent filtration included, 0.16 mm Al
**** INPUTS ****
kVp [kV] hvMIN [keV] Dhv [keV]
70  7  0.5
Angle [deg.]
30
t_AIR t_BE t_AL t_CU t_SN t_W t_Ta t_Ti t_C t_Wa [mm]
1000  0  3.19  0  0  0  0  0  0  0
Nf P
0.68  0.33
****CALCULATED OUTPUTS ****
Brem[uGy/mAs@1m] Char[uGy/mAs@1m]
47.79575  0
HVL1[cm AL] HVL2[cm AL] HVL1[cmCu] HVL2[cmCu] MeanE[keV] EffEAl[keV] EffECu[keV]
0.2555614  0.3614855  0.0084492  0.0133049  40.13138  31.43246  31.93418
**** CALCULATED SPECTRUM ****
Energy[keV]  N[keV cm^2 mAs]^-1 @ 1 meter
7  1.036743e-21
7.5  3.933262e-17
8  1.507583e-12
8.5  9.550872e-10
9  6.088386e-7
9.5  0.0000397
10  0.0026004
10.5  0.034988
11  0.4796932
11.5  3.205662
12  21.46587
12.5  84.6948
13  335.2279
13.5  946.2487
14  2679.428
14.5  5820.553
15  12667.19
15.5  22995.53
16  41798.23
16.5  65858.65
17  103971.1
17.5  147559.8
18  209658
18.5  276851.8
19  365690.9
19.5  455042.1
20  567121.2
20.5  674563.9
21  802944.9
21.5  921709.8
22  1.058305e+6
22.5  1.182223e+6
23  1.320652e+6
23.5  1.441908e+6
24  1.575629e+6
24.5  1.682178e+6
25  1.796603e+6
25.5  1.902177e+6
26  2.013517e+6
26.5  2.102236e+6
27  2.196932e+6
27.5  2.273483e+6
28  2.353421e+6
28.5  2.415316e+6
29  2.478715e+6
29.5  2.521811e+6
30  2.565000e+6
30.5  2.597566e+6
31  2.631939e+6
31.5  2.655259e+6
32  2.679142e+6
32.5  2.692077e+6
33  2.703985e+6
33.5  2.705116e+6
34  2.708108e+6
34.5  2.700798e+6
35  2.693835e+6
35.5  2.681358e+6
36  2.668413e+6
36.5  2.649969e+6
37  2.630452e+6
37.5  2.606538e+6
38  2.583726e+6
38.5  2.554179e+6
39  2.524919e+6
39.5  2.495301e+6
40  2.464639e+6
40.5  2.429823e+6
41  2.396749e+6
41.5  2.359647e+6
42  2.324307e+6
42.5  2.285686e+6
43  2.248132e+6
43.5  2.209911e+6
44  2.170764e+6
44.5  2.130519e+6
45  2.091436e+6
45.5  2.050768e+6
46  2.010530e+6
46.5  1.970629e+6
47  1.929925e+6
47.5  1.887884e+6
48  1.847485e+6
48.5  1.806635e+6
49  1.767435e+6
49.5  1.725477e+6
50  1.684601e+6
50.5  1.644282e+6
51  1.603179e+6
51.5  1.562305e+6
52  1.522404e+6
52.5  1.481955e+6
53  1.441930e+6
53.5  1.403094e+6
54  1.363465e+6
54.5  1.323633e+6
55  1.285049e+6
55.5  1.245493e+6
56  1.206486e+6
56.5  1.168111e+6
57  1.129734e+6
57.5  1.092375e+6
58  1.053860e+6
58.5  1.015889e+6
59  978569.3
59.5  940048.5
60  901902.6
60.5  864961.9
61  826956.9
61.5  789358.9
62  752260.2
62.5  714264.4
63  676737
63.5  639036.1
64  601260.1
64.5  563800.7
65  524228
65.5  485890.4
66  446537.2
66.5  403580.8
67  360992.2
67.5  320466.6
68  279058.8
68.5  237362.6
69  163990.7
69.5  80974.88
70  0
