**** COMMENT ****
Inherent filtration included, 0.16 mm Al
**** INPUTS ****
kVp [kV] hvMIN [keV] Dhv [keV]
90  9  0.5
Angle [deg.]
30
t_AIR t_BE t_AL t_CU t_SN t_W t_Ta t_Ti t_C t_Wa [mm]
1000  0  3.57  0  0  0  0  0  0  0
Nf P
0.68  0.33
****CALCULATED OUTPUTS ****
Brem[uGy/mAs@1m] Char[uGy/mAs@1m]
66.88059  1.807821
HVL1[cm AL] HVL2[cm AL] HVL1[cmCu] HVL2[cmCu] MeanE[keV] EffEAl[keV] EffECu[keV]
0.3427663  0.5079756  0.0122128  0.022332  47.41385  35.42063  36.40755
**** CALCULATED SPECTRUM ****
Energy[keV]  N[keV cm^2 mAs]^-1 @ 1 meter
9  1.669992e-8
9.5  1.805566e-6
10  0.0001961
10.5  0.0034893
11  0.0641063
11.5  0.5364321
12  4.504995
12.5  21.06939
13  98.81418
13.5  319.1876
14  1035.812
14.5  2497.452
15  6036.601
15.5  11905.74
16  23547.41
16.5  39659.35
17  66890.81
17.5  100142.4
18  150136.2
18.5  207206.5
19  286151.7
19.5  369472.6
20  477773.9
20.5  586075.1
21  719676.1
21.5  847776.6
22  999690.3
22.5  1.141534e+6
23  1.304554e+6
23.5  1.452962e+6
24  1.618234e+6
24.5  1.756538e+6
25  1.907910e+6
25.5  2.050484e+6
26  2.203807e+6
26.5  2.332169e+6
27  2.468780e+6
27.5  2.587213e+6
28  2.711058e+6
28.5  2.812111e+6
29  2.918887e+6
29.5  2.997209e+6
30  3.078991e+6
30.5  3.146215e+6
31  3.217915e+6
31.5  3.274556e+6
32  3.333484e+6
32.5  3.376302e+6
33  3.418732e+6
33.5  3.446765e+6
34  3.476219e+6
34.5  3.493190e+6
35  3.509687e+6
35.5  3.516722e+6
36  3.524089e+6
36.5  3.523676e+6
37  3.522428e+6
37.5  3.514001e+6
38  3.507107e+6
38.5  3.489947e+6
39  3.473784e+6
39.5  3.454301e+6
40  3.435762e+6
40.5  3.409888e+6
41  3.385014e+6
41.5  3.356231e+6
42  3.326431e+6
42.5  3.293912e+6
43  3.262416e+6
43.5  3.228575e+6
44  3.194292e+6
44.5  3.157347e+6
45  3.120765e+6
45.5  3.084288e+6
46  3.047272e+6
46.5  3.008211e+6
47  2.970522e+6
47.5  2.928999e+6
48  2.888545e+6
48.5  2.848972e+6
49  2.810212e+6
49.5  2.768498e+6
50  2.727819e+6
50.5  2.687238e+6
51  2.645979e+6
51.5  2.604174e+6
52  2.563380e+6
52.5  2.523432e+6
53  2.483239e+6
53.5  2.442838e+6
54  2.402815e+6
54.5  2.363124e+6
55  2.323129e+6
55.5  2.282849e+6
56  2.243664e+6
56.5  2.203883e+6
57  2.165017e+6
57.5  2.126908e+6
58  5.618416e+6
58.5  2.050958e+6
59  2.013376e+6
59.5  8.143224e+6
60  1.938089e+6
60.5  1.900772e+6
61  1.864291e+6
61.5  1.828534e+6
62  1.792568e+6
62.5  1.756571e+6
63  1.720874e+6
63.5  1.687035e+6
64  1.652897e+6
64.5  1.617894e+6
65  1.583736e+6
65.5  1.549966e+6
66  1.516920e+6
66.5  1.483739e+6
67  3.513696e+6
67.5  1.417908e+6
68  1.385673e+6
68.5  1.354385e+6
69  1.861417e+6
69.5  1.290810e+6
70  1.219089e+6
70.5  1.190304e+6
71  1.161192e+6
71.5  1.132998e+6
72  1.104923e+6
72.5  1.077178e+6
73  1.049115e+6
73.5  1.021476e+6
74  994266.5
74.5  966322.5
75  938928.5
75.5  911599.8
76  884112.8
76.5  856806.1
77  830033.7
77.5  803939.2
78  776649.2
78.5  749490.5
79  722873.6
79.5  696153.9
80  668839.5
80.5  642018.8
81  615260.4
81.5  588705.2
82  561766.9
82.5  535074.4
83  508441.3
83.5  480311.8
84  452756.6
84.5  425932.3
85  396550
85.5  366399.3
86  336839.3
86.5  308088.7
87  278466.7
87.5  249407
88  220916.2
88.5  174414.2
89  115059.2
89.5  56955.12
90  0
