**** COMMENT ****
Inherent filtration included, 0.16 mm Al
**** INPUTS ****
kVp [kV] hvMIN [keV] Dhv [keV]
100  10  0.5
Angle [deg.]
30
t_AIR t_BE t_AL t_CU t_SN t_W t_Ta t_Ti t_C t_Wa [mm]
1000  0  3.7  0  0  0  0  0  0  0
Nf P
0.68  0.33
****CALCULATED OUTPUTS ****
Brem[uGy/mAs@1m] Char[uGy/mAs@1m]
77.55367  3.420525
HVL1[cm AL] HVL2[cm AL] HVL1[cmCu] HVL2[cmCu] MeanE[keV] EffEAl[keV] EffECu[keV]
0.3862681  0.5798531  0.0143673  0.0280319  50.53217  37.28452  38.5783
**** CALCULATED SPECTRUM ****
Energy[keV]  N[keV cm^2 mAs]^-1 @ 1 meter
10  0.0000805
10.5  0.0015692
11  0.0317429
11.5  0.2869491
12  2.60366
12.5  12.91356
13  64.15841
13.5  217.1803
14  739.0386
14.5  1847.721
15  4634.402
15.5  9414.575
16  19186.66
16.5  33085.73
17  57156.28
17.5  87228.24
18  133374.4
18.5  187013.1
19  262489.7
19.5  343504.1
20  450108.9
20.5  558721.2
21  693963.3
21.5  825389.9
22  982650.7
22.5  1.131914e+6
23  1.304337e+6
23.5  1.462614e+6
24  1.641319e+6
24.5  1.793108e+6
25  1.959393e+6
25.5  2.117051e+6
26  2.288782e+6
26.5  2.434692e+6
27  2.590287e+6
27.5  2.725551e+6
28  2.870451e+6
28.5  2.988759e+6
29  3.113419e+6
29.5  3.208789e+6
30  3.308530e+6
30.5  3.393230e+6
31  3.480251e+6
31.5  3.552758e+6
32  3.628164e+6
32.5  3.684591e+6
33  3.741937e+6
33.5  3.782984e+6
34  3.825780e+6
34.5  3.853754e+6
35  3.881874e+6
35.5  3.898866e+6
36  3.917119e+6
36.5  3.924770e+6
37  3.932292e+6
37.5  3.931305e+6
38  3.931389e+6
38.5  3.921251e+6
39  3.910923e+6
39.5  3.896443e+6
40  3.882977e+6
40.5  3.862236e+6
41  3.841339e+6
41.5  3.814720e+6
42  3.789136e+6
42.5  3.759943e+6
43  3.730668e+6
43.5  3.698223e+6
44  3.666812e+6
44.5  3.631791e+6
45  3.596766e+6
45.5  3.560426e+6
46  3.525114e+6
46.5  3.486857e+6
47  3.448650e+6
47.5  3.407525e+6
48  3.367468e+6
48.5  3.327955e+6
49  3.288518e+6
49.5  3.246519e+6
50  3.205561e+6
50.5  3.163610e+6
51  3.121806e+6
51.5  3.079094e+6
52  3.037403e+6
52.5  2.996219e+6
53  2.955180e+6
53.5  2.913636e+6
54  2.873055e+6
54.5  2.831420e+6
55  2.789965e+6
55.5  2.747915e+6
56  2.707572e+6
56.5  2.666216e+6
57  2.625791e+6
57.5  2.586110e+6
58  9.221119e+6
58.5  2.507726e+6
59  2.468328e+6
59.5  1.409437e+7
60  2.389699e+6
60.5  2.351100e+6
61  2.312688e+6
61.5  2.275104e+6
62  2.238324e+6
62.5  2.200761e+6
63  2.163384e+6
63.5  2.127739e+6
64  2.092835e+6
64.5  2.056178e+6
65  2.019716e+6
65.5  1.985137e+6
66  1.951271e+6
66.5  1.916552e+6
67  5.789826e+6
67.5  1.848109e+6
68  1.814918e+6
68.5  1.781994e+6
69  2.770724e+6
69.5  1.716813e+6
70  1.612997e+6
70.5  1.583861e+6
71  1.554805e+6
71.5  1.526681e+6
72  1.499085e+6
72.5  1.471186e+6
73  1.443346e+6
73.5  1.415780e+6
74  1.388728e+6
74.5  1.361617e+6
75  1.334563e+6
75.5  1.307293e+6
76  1.280538e+6
76.5  1.254228e+6
77  1.227971e+6
77.5  1.202266e+6
78  1.177026e+6
78.5  1.151003e+6
79  1.125048e+6
79.5  1.099574e+6
80  1.074571e+6
80.5  1.049292e+6
81  1.024073e+6
81.5  999835.2
82  976025.4
82.5  951355.5
83  926735.2
83.5  902111.6
84  877948.5
84.5  853750.6
85  829597.8
85.5  805915.6
86  782658.6
86.5  758838.7
87  735053.4
87.5  711637.1
88  688639
88.5  664623.7
89  640661.5
89.5  617412.6
90  594575.5
90.5  570564.3
91  546600.6
91.5  523330.6
92  500468.6
92.5  476203.5
93  451984.4
93.5  428231.1
94  404911.2
94.5  378783.4
95  352672.7
95.5  326872.5
96  301542.7
96.5  276071.4
97  250641.6
97.5  225689.8
98  201191.5
98.5  150136
99  99150.53
99.5  49139.32
100  0
