**** COMMENT ****
Inherent filtration included, 0.16 mm Al
**** INPUTS ****
kVp [kV] hvMIN [keV] Dhv [keV]
120  12  0.5
Angle [deg.]
30
t_AIR t_BE t_AL t_CU t_SN t_W t_Ta t_Ti t_C t_Wa [mm]
1000  0  4.13  0  0  0  0  0  0  0
Nf P
0.68  0.33
****CALCULATED OUTPUTS ****
Brem[uGy/mAs@1m] Char[uGy/mAs@1m]
96.30711  7.397315
HVL1[cm AL] HVL2[cm AL] HVL1[cmCu] HVL2[cmCu] MeanE[keV] EffEAl[keV] EffECu[keV]
0.4872136  0.7260523  0.020116  0.0425499  56.33905  41.46473  43.49722
**** CALCULATED SPECTRUM ****
Energy[keV]  N[keV cm^2 mAs]^-1 @ 1 meter
12  0.4252948
12.5  2.548137
13  15.29229
13.5  59.84113
14  235.6785
14.5  658.9775
15  1849.524
15.5  4105.926
16  9151.929
16.5  16926.1
17  31415.09
17.5  50724.13
18  82091.59
18.5  120580.4
19  177449.1
19.5  241527.5
20  329011.6
20.5  421731.1
21  541277.6
21.5  661697.3
22  810020.9
22.5  954715.5
23  1.126306e+6
23.5  1.288531e+6
24  1.475320e+6
24.5  1.639013e+6
25  1.821263e+6
25.5  1.997932e+6
26  2.193146e+6
26.5  2.364460e+6
27  2.548806e+6
27.5  2.713233e+6
28  2.889785e+6
28.5  3.040849e+6
29  3.202317e+6
29.5  3.329625e+6
30  3.463536e+6
30.5  3.580852e+6
31  3.703668e+6
31.5  3.810641e+6
32  3.920177e+6
32.5  4.007484e+6
33  4.098207e+6
33.5  4.169402e+6
34  4.243826e+6
34.5  4.298036e+6
35  4.354320e+6
35.5  4.396324e+6
36  4.440054e+6
36.5  4.470834e+6
37  4.501503e+6
37.5  4.521015e+6
38  4.541828e+6
38.5  4.550518e+6
39  4.557800e+6
39.5  4.559152e+6
40  4.561609e+6
40.5  4.554427e+6
41  4.549253e+6
41.5  4.533667e+6
42  4.519133e+6
42.5  4.499416e+6
43  4.480726e+6
43.5  4.457926e+6
44  4.434255e+6
44.5  4.405439e+6
45  4.377654e+6
45.5  4.347610e+6
46  4.318863e+6
46.5  4.284267e+6
47  4.250703e+6
47.5  4.212632e+6
48  4.176833e+6
48.5  4.139376e+6
49  4.102926e+6
49.5  4.062392e+6
50  4.022890e+6
50.5  3.982740e+6
51  3.941626e+6
51.5  3.898771e+6
52  3.856943e+6
52.5  3.815781e+6
53  3.776220e+6
53.5  3.733755e+6
54  3.692265e+6
54.5  3.649309e+6
55  3.607321e+6
55.5  3.564347e+6
56  3.520970e+6
56.5  3.478256e+6
57  3.436474e+6
57.5  3.395390e+6
58  1.776452e+7
58.5  3.313032e+6
59  3.271671e+6
59.5  2.843712e+7
60  3.187978e+6
60.5  3.146934e+6
61  3.105919e+6
61.5  3.065751e+6
62  3.026404e+6
62.5  2.986727e+6
63  2.946361e+6
63.5  2.908261e+6
64  2.870920e+6
64.5  2.831041e+6
65  2.792344e+6
65.5  2.754879e+6
66  2.718149e+6
66.5  2.680368e+6
67  1.112874e+7
67.5  2.607103e+6
68  2.570587e+6
68.5  2.534778e+6
69  4.719823e+6
69.5  2.464620e+6
70  2.278190e+6
70.5  2.248091e+6
71  2.218527e+6
71.5  2.189892e+6
72  2.161760e+6
72.5  2.133654e+6
73  2.105497e+6
73.5  2.077287e+6
74  2.049565e+6
74.5  2.022605e+6
75  1.994952e+6
75.5  1.966531e+6
76  1.938605e+6
76.5  1.911974e+6
77  1.886003e+6
77.5  1.859672e+6
78  1.833780e+6
78.5  1.807116e+6
79  1.780906e+6
79.5  1.755172e+6
80  1.729122e+6
80.5  1.703345e+6
81  1.678001e+6
81.5  1.653985e+6
82  1.630242e+6
82.5  1.605348e+6
83  1.580865e+6
83.5  1.555917e+6
84  1.531818e+6
84.5  1.507589e+6
85  1.483758e+6
85.5  1.460354e+6
86  1.437329e+6
86.5  1.414938e+6
87  1.391913e+6
87.5  1.369129e+6
88  1.346710e+6
88.5  1.323947e+6
89  1.301649e+6
89.5  1.279511e+6
90  1.257723e+6
90.5  1.235625e+6
91  1.213884e+6
91.5  1.193047e+6
92  1.171857e+6
92.5  1.150285e+6
93  1.129061e+6
93.5  1.108211e+6
94  1.087443e+6
94.5  1.067022e+6
95  1.046915e+6
95.5  1.026574e+6
96  1.006555e+6
96.5  986337.1
97  966088.8
97.5  946191.4
98  926606.7
98.5  907439.4
99  887503.4
99.5  868394.1
100  849569.9
100.5  830511.8
101  811715.2
101.5  792362.1
102  773308.9
102.5  754485.5
103  735953.8
103.5  717456.7
104  698494
104.5  679781.9
105  661357.8
105.5  643240.2
106  624805.4
106.5  606055.5
107  587593.5
107.5  569130.7
108  550962.5
108.5  532377.6
109  513745.5
109.5  495417.3
110  477366
110.5  459601.5
111  440592.1
111.5  421871.9
112  403435.2
112.5  385293.9
113  366613.8
113.5  345873.2
114  325467.3
114.5  305578.5
115  285987.4
115.5  266577.8
116  246810
116.5  227340.4
117  208163.4
117.5  189178.1
118  154103.6
118.5  114687.3
119  75871.83
119.5  37648.59
120  0
