**** COMMENT ****
Inherent filtration included, 0.16 mm Al
**** INPUTS ****
kVp [kV] hvMIN [keV] Dhv [keV]
110  11  0.5
Angle [deg.]
30
t_AIR t_BE t_AL t_CU t_SN t_W t_Ta t_Ti t_C t_Wa [mm]
1000  0  4.18  2.04  0  0  0  0  0  0
Nf P
0.68  0.33
****CALCULATED OUTPUTS ****
Brem[uGy/mAs@1m] Char[uGy/mAs@1m]
4.52695  0.3144247
HVL1[cm AL] HVL2[cm AL] HVL1[cmCu] HVL2[cmCu] MeanE[keV] EffEAl[keV] EffECu[keV]
1.237319  1.267474  0.0974636  0.1125572  80.14931  77.50609  78.73064
**** CALCULATED SPECTRUM ****
Energy[keV]  N[keV cm^2 mAs]^-1 @ 1 meter
11  2.702389e-138
11.5  1.021345e-123
12  3.871181e-109
12.5  1.231405e-97
13  3.927016e-86
13.5  9.369186e-78
14  2.246451e-69
14.5  7.481485e-63
15  2.502410e-56
15.5  3.237869e-51
16  4.200649e-46
16.5  4.194750e-42
17  4.200134e-38
17.5  7.060104e-35
18  1.189626e-31
18.5  5.054154e-29
19  2.150956e-26
19.5  3.095504e-24
20  4.462950e-22
20.5  2.657139e-20
21  1.583890e-18
21.5  5.195877e-17
22  1.707084e-15
22.5  3.119703e-14
23  5.706299e-13
23.5  7.022025e-12
24  8.647822e-11
24.5  7.169659e-10
25  5.944673e-9
25.5  3.699376e-8
26  2.303559e-7
26.5  1.070935e-6
27  4.978115e-6
27.5  0.0000209
28  0.0000874
28.5  0.0002752
29  0.0008671
29.5  0.0024617
30  0.0069921
30.5  0.0172108
31  0.0423915
31.5  0.0947283
32  0.2117613
32.5  0.4293096
33  0.8706634
33.5  1.647855
34  3.11873
34.5  5.4617
35  9.567885
35.5  15.81644
36  26.14136
36.5  40.7746
37  63.61726
37.5  95.48207
38  143.262
38.5  204.7475
39  292.6966
39.5  406.5956
40  564.9958
40.5  755.0183
41  1009.186
41.5  1322.142
42  1732.844
42.5  2206.076
43  2809.143
43.5  3508.517
44  4384.212
44.5  5320.894
45  6458.958
45.5  7764.862
46  9336.539
46.5  11012.84
47  12987.12
47.5  15158.93
48  17696.96
48.5  20292.16
49  23259.49
49.5  26389.72
50  29945.94
50.5  33655.96
51  37832.47
51.5  41719.8
52  46013.27
52.5  50752.11
53  55994.91
53.5  61161.43
54  66813.64
54.5  72949.59
55  79659.32
55.5  85363.66
56  91462.96
56.5  98002.93
57  105023.1
57.5  112560
58  541379.2
58.5  126821
59  133374.4
59.5  978185.3
60  150092.2
60.5  157733.4
61  165780.3
61.5  172669.6
62  179861.5
62.5  187199.9
63  194855.7
63.5  202945
64  211413.5
64.5  217887.8
65  224579.1
65.5  231639.2
66  238940.1
66.5  246306.1
67  931447.3
67.5  259253.3
68  264791.1
68.5  272951.1
69  490267.8
69.5  287133.2
70  277698.4
70.5  281242
71  284674.7
71.5  290616.3
72  296696
72.5  301468.2
73  306303.1
73.5  310478.1
74  314721.2
74.5  318732.1
75  322834.6
75.5  326013.7
76  329232.2
76.5  332030.5
77  334859.7
77.5  337344.3
78  339752.2
78.5  341645.3
79  343551.8
79.5  345140.9
80  346552.5
80.5  347619.3
81  348686.8
81.5  349379.5
82  349779.1
82.5  349963.9
83  350139.8
83.5  349468.9
84  348708.2
84.5  347926.8
85  347130.5
85.5  346013.6
86  344894.9
86.5  343163
87  341413.7
87.5  339306.5
88  337184
88.5  334690.4
89  332054.3
89.5  329265.1
90  326458.7
90.5  323082.5
91  319420.5
91.5  315916.6
92  312395.2
92.5  308437.5
93  304022
93.5  299607.8
94  295182.4
94.5  290625.4
95  285829.6
95.5  280384.5
96  274941.7
96.5  269483.8
97  263960.2
97.5  257979.1
98  251996.2
98.5  245995.7
99  239992.1
99.5  233436.4
100  226724.7
100.5  219672.2
101  212637.2
101.5  205349.6
102  197618.8
102.5  189889
103  182174.4
103.5  174364.6
104  165161
104.5  155818.8
105  146506.4
105.5  137229.4
106  127836.4
106.5  118197.3
107  108585.7
107.5  98860.2
108  84857.96
108.5  63510.2
109  42253.27
109.5  21085.31
110  0
