**** COMMENT ****
Inherent filtration included, 0.16 mm Al
**** INPUTS ****
kVp [kV] hvMIN [keV] Dhv [keV]
150  15  0.5
Angle [deg.]
30
t_AIR t_BE t_AL t_CU t_SN t_W t_Ta t_Ti t_C t_Wa [mm]
1000  0  4.16  0  1  0  0  0  0  0
Nf P
0.68  0.33
****CALCULATED OUTPUTS ****
Brem[uGy/mAs@1m] Char[uGy/mAs@1m]
11.83664  0.1700915
HVL1[cm AL] HVL2[cm AL] HVL1[cmCu] HVL2[cmCu] MeanE[keV] EffEAl[keV] EffECu[keV]
1.543008  1.568043  0.1869831  0.2123222  105.591  103.6229  105.034
**** CALCULATED SPECTRUM ****
Energy[keV]  N[keV cm^2 mAs]^-1 @ 1 meter
15  2.719574e-12
15.5  9.167728e-11
16  3.103806e-9
16.5  5.213968e-8
17  8.793058e-7
17.5  8.012075e-6
18  0.0000732
18.5  0.000453
19  0.0028065
19.5  0.0119827
20  0.0512638
20.5  0.1780637
21  0.6195162
21.5  1.708756
22  4.716342
22.5  11.22544
23  26.74807
23.5  55.33597
24  114.5886
24.5  213.8485
25  399.1818
25.5  658.8124
26  1088.104
26.5  1724.839
27  2735.934
27.5  4055.662
28  6012.204
28.5  8423.717
29  11808.62
29.5  1.104718e-7
30  3.456540e-7
30.5  1.036231e-6
31  3.106338e-6
31.5  8.924450e-6
32  0.0000256
32.5  0.0000681
33  0.0001808
33.5  0.0004603
34  0.0011722
34.5  0.0026619
35  0.0060466
35.5  0.0131922
36  0.0287907
36.5  0.0604017
37  0.1267042
37.5  0.2375416
38  0.4454552
38.5  0.8028285
39  1.447273
39.5  2.421862
40  4.052157
40.5  6.288536
41  9.761383
41.5  15.12252
42  23.43312
42.5  33.71208
43  48.49255
43.5  69.67181
44  100.1208
44.5  138.5332
45  191.7187
45.5  255.67
46  340.9
46.5  437.7321
47  562.166
47.5  721.1069
48  925.1375
48.5  1144.458
49  1415.545
49.5  1748.827
50  2160.909
50.5  2572.884
51  3063.85
51.5  3727.467
52  4534.076
52.5  5356.389
53  6328.702
53.5  7392.345
54  8635.882
54.5  9937.456
55  11433.3
55.5  13099
56  15009.21
56.5  16948.34
57  19140.26
57.5  21539.25
58  179330.2
58.5  26956.67
59  29987.51
59.5  375953.2
60  36551.96
60.5  40193.19
61  44201.74
61.5  48260.97
62  52698.26
62.5  57094.53
63  61863.55
63.5  66830.27
64  72183.51
64.5  77596.46
65  83422.94
65.5  89097.07
66  95165.52
66.5  101221
67  602133.2
67.5  114058.6
68  120866.1
68.5  127623.1
69  304343.9
69.5  142280.3
70  136347.3
70.5  143116.8
71  150233.1
71.5  157140
72  164376
72.5  171968.2
73  179880.7
73.5  187410.6
74  195268.4
74.5  202715.3
75  210459.5
75.5  217574.5
76  224891.7
76.5  232560
77  240504
77.5  248748.8
78  257291.1
78.5  264979.1
79  272849
79.5  279943
80  287236.9
80.5  294702.6
81  302378
81.5  309294.1
82  316311.7
82.5  324489.2
83  332894.3
83.5  338855.4
84  345018.3
84.5  351286
85  357683.7
85.5  364216.4
86  370884.6
86.5  377691
87  384638.4
87.5  390244
88  395856.5
88.5  401342.8
89  406920.8
89.5  412798.8
90  418777.1
90.5  423066.3
91  427316.4
91.5  431843.9
92  436433.9
92.5  440813
93  445250.3
93.5  449717.1
94  454136.8
94.5  457169
95  460234.3
95.5  463077
96  465949.7
96.5  468799.9
97  471568.6
97.5  474369.3
98  477197.5
98.5  480024.1
99  482877.7
99.5  484225.2
100  485470
100.5  488205.1
101  490963.7
101.5  491974
102  493112.9
102.5  493926.1
103  494746.3
103.5  495603.2
104  496466.6
104.5  495491.7
105  494522.9
105.5  495306.7
106  495970.9
106.5  494795.8
107  493624.7
107.5  494012.6
108  494401.1
108.5  493160
109  491794.2
109.5  490436.4
110  489079.1
110.5  487692.6
111  486306
111.5  484830.4
112  483224.3
112.5  481623.2
113  480019.3
113.5  478114.5
114  476208.1
114.5  472762.1
115  469198.9
115.5  467325.8
116  465445.9
116.5  461867.6
117  458301.4
117.5  456047.8
118  453654.8
118.5  449833
119  446022.4
119.5  442249.1
120  438485.5
120.5  434320
121  430035.3
121.5  426003.3
122  421979.8
122.5  418584.8
123  415186.5
123.5  410756.1
124  406202
124.5  401722.9
125  397253.2
125.5  392595.7
126  387951.3
126.5  383163
127  378249.1
127.5  373209.7
128  368184.3
128.5  362977.9
129  357790.2
129.5  352546.2
130  347175.7
130.5  341489.5
131  335825.9
131.5  330279.6
132  324751.3
132.5  318830.7
133  312789.9
133.5  306718.7
134  300670.5
134.5  294604.6
135  288562.2
135.5  282182.6
136  275680.4
136.5  268958.9
137  262271
137.5  255775.3
138  249303.7
138.5  242226.4
139  235033.9
139.5  228009.2
140  221009.7
140.5  213844.8
141  206716.7
141.5  198603.8
142  190357.3
142.5  181978.8
143  173647.6
143.5  165462.9
144  157314.2
144.5  148951.3
145  140472.5
145.5  132040.4
146  123654.1
146.5  115342.4
147  107070.8
147.5  89240.21
148  71180.2
148.5  53258.34
149  35422.02
149.5  17659.81
150  0
