**** COMMENT ****
Inherent filtration included, 0.16 mm Al
**** INPUTS ****
kVp [kV] hvMIN [keV] Dhv [keV]
200  20  0.5
Angle [deg.]
30
t_AIR t_BE t_AL t_CU t_SN t_W t_Ta t_Ti t_C t_Wa [mm]
1000  0  4.19  0  2  0  0  0  0  0
Nf P
0.68  0.33
****CALCULATED OUTPUTS ****
Brem[uGy/mAs@1m] Char[uGy/mAs@1m]
21.02569  0.0071282
HVL1[cm AL] HVL2[cm AL] HVL1[cmCu] HVL2[cmCu] MeanE[keV] EffEAl[keV] EffECu[keV]
1.810047  1.822276  0.3125141  0.3360909  139.4978  141.1688  139.4862
**** CALCULATED SPECTRUM ****
Energy[keV]  N[keV cm^2 mAs]^-1 @ 1 meter
20  7.732283e-9
20.5  7.297266e-8
21  6.896355e-7
21.5  4.296789e-6
22  0.0000268
22.5  0.0001292
23  0.0006235
23.5  0.0023383
24  0.0087802
24.5  0.0275938
25  0.0867484
25.5  0.2159101
26  0.5378982
26.5  1.257069
27  2.940171
27.5  6.077276
28  12.57052
28.5  23.51605
29  43.99072
29.5  3.708959e-21
30  3.496654e-20
30.5  3.043035e-19
31  2.649593e-18
31.5  2.130059e-17
32  1.713149e-16
32.5  1.182844e-15
33  8.165599e-15
33.5  5.210255e-14
34  3.325794e-13
34.5  1.695554e-12
35  8.647229e-12
35.5  4.081405e-11
36  1.926980e-10
36.5  8.433211e-10
37  3.689921e-9
37.5  1.292697e-8
38  4.529982e-8
38.5  1.470417e-7
39  4.774155e-7
39.5  1.336830e-6
40  3.744207e-6
40.5  9.043421e-6
41  0.0000218
41.5  0.0000526
42  0.0001268
42.5  0.0002636
43  0.0005482
43.5  0.0011385
44  0.0023649
44.5  0.0045605
45  0.0087923
45.5  0.0157446
46  0.0281992
46.5  0.0468858
47  0.0779684
47.5  0.129487
48  0.2150819
48.5  0.3321309
49  0.512764
49.5  0.7906355
50  1.219269
50.5  1.746669
51  2.502554
51.5  3.743778
52  5.601393
52.5  7.905711
53  11.15556
53.5  15.39117
54  21.23768
54.5  28.44359
55  38.09912
55.5  50.62837
56  67.30785
56.5  86.85439
57  112.0902
57.5  143.6123
58  1879.994
58.5  230.5449
59  288.8644
59.5  5093.941
60  440.0643
60.5  539.2293
61  660.6049
61.5  797.6338
62  963.1798
62.5  1145.514
63  1362.493
63.5  1609.729
64  1902.002
64.5  2228.735
65  2611.076
65.5  3016.76
66  3485.775
66.5  3995.827
67  33856.39
67.5  5213.299
68  5933.492
68.5  6705.309
69  20734.39
69.5  8555.638
70  8287.352
70.5  9249.482
71  10324.08
71.5  11436.94
72  12670.66
72.5  14045.43
73  15566.69
73.5  17117.78
74  18824.7
74.5  20550.62
75  22436.26
75.5  24300.08
76  26320.41
76.5  28522.39
77  30903.24
77.5  33486.9
78  36288.75
78.5  39008.58
79  41934.72
79.5  44754.6
80  47766.81
80.5  50981.87
81  54404.01
81.5  57662.14
82  61118.69
82.5  65218.58
83  69597.14
83.5  73154.14
84  76896.86
84.5  80868.5
85  85030.89
85.5  89409.47
86  94018.1
86.5  98869.02
87  103975.1
87.5  108537.6
88  113305.5
88.5  118226.6
89  123340.8
89.5  128747
90  134396
90.5  139194.6
91  144170.7
91.5  149402.5
92  154830.5
92.5  160372
93  166084.1
93.5  172002
94  178137.8
94.5  183248.6
95  188513.2
95.5  193821.8
96  199287.3
96.5  204912.5
97  210661.3
97.5  216573.6
98  222659.9
98.5  228911.6
99  235347.1
99.5  240339.1
100  245445.5
100.5  252363.2
101  259433
101.5  264783.1
102  270252.2
102.5  275802.9
103  281476.6
103.5  287293.3
104  293239.3
104.5  297130.3
105  301023.2
105.5  307206
106  313525
106.5  317633.6
107  321805.2
107.5  328266.9
108  334867.6
108.5  339303.6
109  343741.3
109.5  348237.8
110  352802.5
110.5  357414.7
111  362096.5
111.5  366848.7
112  371743.3
112.5  376571.1
113  381470.9
113.5  386201.7
114  391000.4
114.5  393230.5
115  395482.3
115.5  400649.9
116  405894
116.5  408223.4
117  410497.3
117.5  415576.6
118  420727.4
118.5  423062
119  425417.9
119.5  427821
120  430245.9
120.5  432429.3
121  434550.4
121.5  436936.6
122  439343.6
122.5  443056
123  446807.3
123.5  449037.1
124  451285.2
124.5  453428.6
125  455503.6
125.5  457363.5
126  459237.6
126.5  461021.8
127  462819.3
127.5  464290.4
128  465772.1
128.5  466986.7
129  468122.4
129.5  469540.3
130  470967.5
130.5  471755.3
131  472549.5
131.5  473336.6
132  474129.6
132.5  474926.4
133  475639.3
133.5  475930.3
134  476225.1
134.5  476631
135  477040.6
135.5  477309.9
136  477582.5
136.5  477255.8
137  476841.5
137.5  476727.7
138  476615.7
138.5  476171.8
139  475729.9
139.5  475593.8
140  475458.8
140.5  474666.4
141  473784.9
141.5  473144
142  472503.8
142.5  471286.6
143  470071.8
143.5  469118.8
144  468166.8
144.5  466882.9
145  465510.1
145.5  464138.8
146  462768.8
146.5  461351.5
147  459935.4
147.5  458201.5
148  456470.9
148.5  454980.1
149  453399.5
149.5  451563.6
150  449729.7
150.5  447819.9
151  445912.5
151.5  443759.6
152  441610.8
152.5  439404.6
153  437112.6
153.5  435067.5
154  433023.7
154.5  430711.1
155  428402.1
155.5  425812.8
156  423229.6
156.5  420790.8
157  418267.2
157.5  415536.9
158  412812.5
158.5  410001.2
159  407196.6
159.5  404465.4
160  401739.5
160.5  398637.5
161  395458.1
161.5  392820.7
162  390184.6
162.5  387024.2
163  383872.6
163.5  380451.4
164  377043.3
164.5  374034.3
165  370943.7
165.5  367627.2
166  364318.7
166.5  360754.3
167  357202.4
167.5  353863.1
168  350532
168.5  347131.5
169  343653.7
169.5  339932.8
170  336224
170.5  332472
171  328732.9
171.5  325043
172  321364.9
172.5  317560.5
173  313683.4
173.5  309731.4
174  305792.5
174.5  301931.7
175  298081.5
175.5  294012.3
176  289959.9
176.5  285905.9
177  281780.3
177.5  277479.3
178  273195.3
178.5  268940.5
179  264701.6
179.5  260466.5
180  256247.6
180.5  251933.2
181  247547.8
181.5  242871.2
182  238217.2
182.5  233742
183  229282.7
183.5  224800.8
184  220335.9
184.5  215610.1
185  210818.3
185.5  205903.7
186  201011.6
186.5  196129.8
187  191270.6
187.5  186538.4
188  181822.8
188.5  176282.5
189  170678.9
189.5  165109.9
190  159564.9
190.5  154034.6
191  148528.4
191.5  143127.2
192  137743.3
192.5  132194.5
193  126586.7
193.5  120914.2
194  115273.7
194.5  109751.5
195  104251.8
195.5  98824.15
196  93412.93
196.5  81655.06
197  69797.41
197.5  58005.16
198  46277.6
198.5  34639.25
199  23047.25
199.5  11499.84
200  0
