**** COMMENT ****
Inherent filtration included, 0.16 mm Al
**** INPUTS ****
kVp [kV] hvMIN [keV] Dhv [keV]
250  25  0.5
Angle [deg.]
30
t_AIR t_BE t_AL t_CU t_SN t_W t_Ta t_Ti t_C t_Wa [mm]
1000  0  4.18  0  4  0  0  0  0  0
Nf P
0.68  0.33
****CALCULATED OUTPUTS ****
Brem[uGy/mAs@1m] Char[uGy/mAs@1m]
26.29915  9.976797e-6
HVL1[cm AL] HVL2[cm AL] HVL1[cmCu] HVL2[cmCu] MeanE[keV] EffEAl[keV] EffECu[keV]
2.006478  2.015814  0.429343  0.4477737  175.6972  180.0538  175.8173
**** CALCULATED SPECTRUM ****
Energy[keV]  N[keV cm^2 mAs]^-1 @ 1 meter
25  3.467043e-9
25.5  1.941942e-8
26  1.088069e-7
26.5  5.470347e-7
27  2.753146e-6
27.5  0.000011
28  0.0000437
28.5  0.0001443
29  0.0004768
29.5  3.240305e-48
30  2.752385e-46
30.5  2.006561e-44
31  1.462631e-42
31.5  9.144049e-41
32  5.719632e-39
32.5  2.652139e-37
33  1.230364e-35
33.5  4.902902e-34
34  1.954637e-32
34.5  4.995816e-31
35  1.277368e-29
35.5  2.809469e-28
36  6.177408e-27
36.5  1.169958e-25
37  2.216549e-24
37.5  2.699501e-23
38  3.288674e-22
38.5  3.448534e-21
39  3.617167e-20
39.5  2.826208e-19
40  2.208768e-18
40.5  1.286336e-17
41  7.489096e-17
41.5  4.349459e-16
42  2.526620e-15
42.5  1.093786e-14
43  4.736057e-14
43.5  2.047763e-13
44  8.855838e-13
44.5  3.303508e-12
45  1.232546e-11
45.5  3.971186e-11
46  1.279114e-10
46.5  3.554607e-10
47  9.879800e-10
47.5  2.742149e-9
48  7.612099e-9
48.5  1.825490e-8
49  4.378463e-8
49.5  1.048741e-7
50  2.512346e-7
50.5  5.197818e-7
51  1.075080e-6
51.5  2.425670e-6
52  5.473708e-6
52.5  0.000011
53  0.0000221
53.5  0.0000424
54  0.0000813
54.5  0.0001472
55  0.0002665
55.5  0.0004752
56  0.0008473
56.5  0.0014244
57  0.0023951
57.5  0.003969
58  0.0825725
58.5  0.0104264
59  0.0165288
59.5  0.3643413
60  0.039147
60.5  0.0593736
61  0.0900285
61.5  0.1325897
62  0.1952904
62.5  0.2791629
63  0.3990931
63.5  0.5625995
64  0.7931638
64.5  1.100693
65  1.527589
65.5  2.060825
66  2.779549
66.5  3.692022
67  43.32105
67.5  6.420094
68  8.4048
68.5  10.8442
69  43.65012
69.5  18.04204
70  18.78949
70.5  23.62589
71  29.70161
71.5  36.77751
72  45.54245
72.5  56.44291
73  69.95768
73.5  85.38437
74  104.2202
74.5  125.3586
75  150.7947
75.5  178.653
76  211.6188
76.5  250.7495
77  297.1348
77.5  352.1442
78  417.3637
78.5  487.0592
79  568.4272
79.5  653.799
80  752.0364
80.5  865.0404
81  994.8447
81.5  1128.012
82  1279.075
82.5  1470.796
83  1691.345
83.5  1887.953
84  2107.525
84.5  2353.359
85  2628.001
85.5  2934.999
86  3277.279
86.5  3659.654
87  4086.84
87.5  4497.038
88  4948.638
88.5  5442.422
89  5985.748
89.5  6586.932
90  7248.818
90.5  7857.715
91  8516.292
91.5  9234.527
92  10013.76
92.5  10852.42
93  11761.81
93.5  12747.11
94  13815.5
94.5  14764.15
95  15778.55
95.5  16854.34
96  18000.44
96.5  19224.06
97  20531.63
97.5  21927.56
98  23419.25
98.5  25011.82
99  26713.66
99.5  28132.27
100  29627.26
100.5  31645.68
101  33796.11
101.5  35572.2
102  37442.89
102.5  39406
103  41473.41
103.5  43653.35
104  45949.35
104.5  47662.8
105  49441.7
105.5  52045.22
106  54777.19
106.5  56814.14
107  58928.62
107.5  61992.58
108  65217.79
108.5  67651.08
109  70177.19
109.5  72795.11
110  75512.84
110.5  78335.62
111  81251.42
111.5  84278.07
112  87419.87
112.5  90675.53
113  94054.97
113.5  97502.04
114  101078.1
114.5  103331.7
115  105638.3
115.5  109590.5
116  113673.4
116.5  116200.1
117  118785.9
117.5  123143.4
118  127663.9
118.5  130498.3
119  133398.8
119.5  136375.1
120  139421.1
120.5  142457.5
121  145538.5
121.5  148773.4
122  152083.6
122.5  156373.1
123  160787.1
123.5  164282.6
124  167857.7
124.5  171339.5
125  174897.1
125.5  178452.6
126  182054
126.5  185554.1
127  189125.3
127.5  192487.3
128  195913
128.5  199279
129  202706.8
129.5  206326.2
130  210014.1
130.5  213322.7
131  216652.8
131.5  219880.9
132  223161.1
132.5  226656.9
133  230211.5
133.5  233274.8
134  236382.9
134.5  239766
135  243201.6
135.5  246433.7
136  249674
136.5  252478.8
137  255319.1
137.5  258356.7
138  261434.5
138.5  264356.7
139  267315.7
139.5  270496.1
140  273718.4
140.5  276415.8
141  279101.5
141.5  281959.3
142  284850.4
142.5  287226.1
143  289625.4
143.5  292197.1
144  294795.6
144.5  297235.4
145  299699.2
145.5  302191.5
146  304663.2
146.5  306901.7
147  309160.4
147.5  311209.1
148  313275.2
148.5  315572.8
149  317890.9
149.5  320048.8
150  322224.9
150.5  324117.2
151  325977.1
151.5  327683.4
152  329402
152.5  331132.8
153  332875.9
153.5  334802.7
154  336743.8
154.5  338487.9
155  340244.2
155.5  341545.6
156  342806
156.5  344229.7
157  345662.1
157.5  346928.3
158  348201.8
158.5  349148
159  350099.4
159.5  351371.2
160  352650
160.5  353416.6
161  354137.8
161.5  355603.8
162  357078
162.5  357813
163  358551.5
163.5  358768.5
164  358987.5
164.5  359958.7
165  360934.3
165.5  361679.1
166  362377.2
166.5  362547.5
167  362719.2
167.5  363097
168  363476.3
168.5  364167.2
169  364860.5
169.5  365038.8
170  365218
170.5  365057.8
171  364849.1
171.5  364930.1
172  365011.6
172.5  365153.6
173  365295.9
173.5  365050.6
174  364805.6
174.5  364926
175  365046.3
175.5  364571.8
176  364049.1
176.5  363790.9
177  363532
177.5  363008.8
178  362485.6
178.5  361998.9
179  361511.8
179.5  360987.8
180  360463.5
180.5  360132.6
181  359753
181.5  358659
182  357566.4
182.5  356975.2
183  356383
183.5  355466.8
184  354550.8
184.5  353956
185  353359.7
185.5  352228.5
186  351052.3
186.5  349855.7
187  348660
187.5  347657.8
188  346655.1
188.5  345460
189  344265.4
189.5  343088.7
190  341912.2
190.5  340672.5
191  339389
191.5  338296.6
192  337202.8
192.5  335918
193  334633
193.5  332857.8
194  331086.8
194.5  329821.7
195  328556
195.5  327403.5
196  326207.1
196.5  324350.6
197  322498.1
197.5  320649.5
198  318804.6
198.5  317424.3
199  316042.9
199.5  314399.8
200  312757.9
200.5  310857
201  308920.1
201.5  306986.6
202  305056.4
202.5  303127
203  301200.8
203.5  299887.3
204  298570.3
204.5  296665.8
205  294764
205.5  292332.4
206  289873.1
206.5  287843.8
207  285817.2
207.5  283953.5
208  282090.3
208.5  280086.1
209  278084.1
209.5  276067.7
210  274053.5
210.5  271548.6
211  269018.2
211.5  266884.6
212  264753.2
212.5  262774.2
213  260794.8
213.5  258289.1
214  255792.1
214.5  253689.4
215  251588.2
215.5  248988.3
216  246365.2
216.5  244245.3
217  242124.5
217.5  239516.8
218  236917.5
218.5  234326.7
219  231744
219.5  229517.2
220  227291.1
220.5  224579
221  221846.3
221.5  219244.2
222  216647.5
222.5  213935.4
223  211231.5
223.5  208535.6
224  205847.8
224.5  203477.5
225  201107.2
225.5  198256.1
226  195387
226.5  192634.8
227  189887.6
227.5  187039.7
228  184199.8
228.5  181367.8
229  178543.5
229.5  175725.9
230  172915.9
230.5  169909.3
231  166887.3
231.5  163954.7
232  161026.9
232.5  157784.3
233  154558.6
233.5  151570.3
234  148589.7
234.5  145616.5
235  142650.8
235.5  139213
236  135762.3
236.5  132386.3
237  129014.9
237.5  125393.7
238  121790.9
238.5  118379.3
239  114975.7
239.5  111579.9
240  108191.9
240.5  104565.7
241  100942.2
241.5  97540.56
242  94142.44
242.5  90691.06
243  87247.28
243.5  83688.3
244  80146.95
244.5  76735.35
245  73330.93
245.5  65853.76
246  58391.55
246.5  51040.92
247  43705.46
247.5  36354.59
248  29030.71
248.5  21751.72
249  14487.06
249.5  7225.985
250  0
