**** COMMENT ****
Inherent filtration included, 0.16 mm Al
**** INPUTS ****
kVp [kV] hvMIN [keV] Dhv [keV]
300  30  0.5
Angle [deg.]
30
t_AIR t_BE t_AL t_CU t_SN t_W t_Ta t_Ti t_C t_Wa [mm]
1000  0  4.18  0  6.5  0  0  0  0  0
Nf P
0.68  0.33
****CALCULATED OUTPUTS ****
Brem[uGy/mAs@1m] Char[uGy/mAs@1m]
32.55516  2.755858e-9
HVL1[cm AL] HVL2[cm AL] HVL1[cmCu] HVL2[cmCu] MeanE[keV] EffEAl[keV] EffECu[keV]
2.158708  2.167872  0.5203045  0.5352562  209.9665  216.0765  210.3175
**** CALCULATED SPECTRUM ****
Energy[keV]  N[keV cm^2 mAs]^-1 @ 1 meter
30  5.958826e-79
30.5  6.175558e-76
31  6.399296e-73
31.5  5.187938e-70
32  4.208502e-67
32.5  2.107823e-64
33  1.056309e-61
33.5  4.149354e-59
34  1.630799e-56
34.5  3.122530e-54
35  5.981506e-52
35.5  8.986981e-50
36  1.350783e-47
36.5  1.597093e-45
37  1.887676e-43
37.5  1.090098e-41
38  6.297266e-40
38.5  2.857038e-38
39  1.296624e-36
39.5  3.650262e-35
40  1.027910e-33
40.5  1.796044e-32
41  3.139032e-31
41.5  5.471434e-30
42  9.539225e-29
42.5  1.032689e-27
43  1.117546e-26
43.5  1.207499e-25
44  1.304971e-24
44.5  1.110087e-23
45  9.444957e-23
45.5  6.330883e-22
46  4.244342e-21
46.5  2.240303e-20
47  1.182715e-19
47.5  6.234402e-19
48  3.286867e-18
48.5  1.366740e-17
49  5.681182e-17
49.5  2.358031e-16
50  9.788732e-16
50.5  3.201828e-15
51  1.047448e-14
51.5  3.948350e-14
52  1.488534e-13
52.5  4.639487e-13
53  1.446234e-12
53.5  4.195092e-12
54  1.217024e-11
54.5  3.209479e-11
55  8.461191e-11
55.5  2.176543e-10
56  5.599555e-10
56.5  1.309688e-9
57  3.063589e-9
57.5  6.998373e-9
58  2.340749e-7
58.5  3.398960e-8
59  7.226477e-8
59.5  1.891858e-6
60  2.967962e-7
60.5  5.873711e-7
61  1.162091e-6
61.5  2.192670e-6
62  4.137590e-6
62.5  7.439683e-6
63  0.0000134
63.5  0.0000235
64  0.0000413
64.5  0.0000708
65  0.0001213
65.5  0.0001985
66  0.0003246
66.5  0.0005183
67  0.0083392
67.5  0.0012894
68  0.0020098
68.5  0.0030593
69  0.0160603
69.5  0.0070826
70  0.0081782
70.5  0.0119203
71  0.0173761
71.5  0.024713
72  0.0351505
72.5  0.050065
73  0.071294
73.5  0.099043
74  0.1376029
74.5  0.1866721
75  0.2532579
75.5  0.3352593
76  0.4438428
76.5  0.5877485
77  0.7783646
77.5  1.030931
78  1.365541
78.5  1.764886
79  2.280569
79.5  2.877922
80  3.631962
80.5  4.582845
81  5.783021
81.5  7.128785
82  8.788222
82.5  11.08701
83  13.98788
83.5  16.82025
84  20.22722
84.5  24.33381
85  29.26857
85.5  35.20235
86  42.34126
86.5  50.93046
87  61.26505
87.5  71.95404
88  84.512
88.5  99.20029
89  116.4468
89.5  136.767
90  160.6403
90.5  184.1627
91  211.0913
91.5  242.0652
92  277.5959
92.5  318.1566
93  364.6592
93.5  417.933
94  479.0094
94.5  536.4139
95  600.7218
95.5  672.3169
96  752.474
96.5  842.2784
97  942.637
97.5  1054.884
98  1180.541
98.5  1321.136
99  1478.528
99.5  1616.625
100  1767.685
100.5  1978.162
101  2213.778
101.5  2419.522
102  2644.478
102.5  2890.128
103  3158.073
103.5  3451.18
104  3771.615
104.5  4024.92
105  4295.374
105.5  4693.868
106  5129.492
106.5  5473.779
107  5841.354
107.5  6380.456
108  6969.521
108.5  7439.002
109  7938.849
109.5  8471.642
110  9040.454
110.5  9647.152
111  10294.86
111.5  10986.35
112  11724.62
112.5  12511.54
113  13351.63
113.5  14239.62
114  15187.06
114.5  15829.03
115  16495.63
115.5  17602.98
116  18785.15
116.5  19576.57
117  20401.84
117.5  21759.06
118  23207.14
118.5  24183.27
119  25201.06
119.5  26263.9
120  27376.83
120.5  28512.81
121  29696.62
121.5  30947.76
122  32252.35
122.5  33930.11
123  35695.96
123.5  37182.23
124  38731.24
124.5  40266.03
125  41862.55
125.5  43501.38
126  45205.31
126.5  46893
127  48636.94
127.5  50327.09
128  52077.05
128.5  53852.98
129  55690.6
129.5  57630.54
130  59639.24
130.5  61527.91
131  63477.64
131.5  65386.49
132  67354.03
132.5  69497.33
133  71699.32
133.5  73663.38
134  75682.64
134.5  77904.35
135  80192.74
135.5  82382.07
136  84632.7
136.5  86705.18
137  88829.96
137.5  91065.23
138  93358.35
138.5  95641.48
139  97968
139.5  100425.7
140  102946.8
140.5  105212.3
141  107529.5
141.5  109955
142  112436.9
142.5  114657.6
143  116924
143.5  119292.4
144  121710.5
144.5  124108.3
145  126537.8
145.5  129016.9
146  131546.5
146.5  133892.9
147  136283.2
147.5  138609.4
148  140977.3
148.5  143491.6
149  146052.8
149.5  148577.9
150  151148.7
150.5  153480
151  155829.1
151.5  158142.7
152  160492.7
152.5  162879.7
153  165304.4
153.5  167845.5
154  170427.9
154.5  172944.2
155  175499.9
155.5  177700.9
156  179931.8
156.5  182273.3
157  184624.6
157.5  186914.1
158  189234.3
158.5  191227.3
159  193243.5
159.5  195637.2
160  198062.9
160.5  200045
161  202049.3
161.5  204689
162  207365.5
162.5  209455.5
163  211543.6
163.5  213147.7
164  214766.3
164.5  217049.5
165  219359.3
165.5  221557.4
166  223779.7
166.5  225490.2
167  227216
167.5  229086.3
168  231000.4
168.5  233285.6
169  235595.6
169.5  237388.2
170  239196.7
170.5  240584.7
171  241983
171.5  243795.4
172  245623.6
172.5  247520.3
173  249433.6
173.5  250855.6
174  252287.7
174.5  254230.1
175  256161.7
175.5  257458.5
176  258763.9
176.5  260279.7
177  261806.2
177.5  263139.4
178  264481.4
178.5  265872.1
179  267271.8
179.5  268640.5
180  270018
180.5  271579.9
181  273124.8
181.5  273882.1
182  274643.1
182.5  276046.5
183  277458.6
183.5  278370.8
184  279287.5
184.5  280721.1
185  282163.6
185.5  282954.9
186  283750
186.5  284524.7
187  285275.2
187.5  286186.3
188  287101.6
188.5  287863
189  288627.6
189.5  289408.8
190  290193.3
190.5  290963.6
191  291737.1
191.5  292679
192  293625
192.5  294403.4
193  295157.8
193.5  295208.6
194  295260.4
194.5  296033.4
195  296809.3
195.5  297738.1
196  298670.6
196.5  298727.3
197  298784.8
197.5  298842.9
198  298901.8
198.5  299656.8
199  300388.5
199.5  300599.7
200  300811.6
200.5  300831.9
201  300852.6
201.5  300873.6
202  300894.9
202.5  300912.4
203  300930.1
203.5  301838.3
204  302773.7
204.5  302775.6
205  302777.4
205.5  302038.3
206  301301
206.5  301280.2
207  301259.3
207.5  301408.3
208  301557.1
208.5  301553.6
209  301549.9
209.5  301527.6
210  301504.9
210.5  300743.1
211  299960.3
211.5  299886.4
212  299811.8
212.5  299909.7
213  300006.8
213.5  299218
214  298430.5
214.5  298370
215  298308.7
215.5  297520.7
216  296733.7
216.5  296792.1
217  296828.9
217.5  295992.9
218  295157.8
218.5  294323.6
219  293490.2
219.5  293367.7
220  293243.5
220.5  292408.5
221  291574
221.5  290900.7
222  290227.1
222.5  289356
223  288467.9
223.5  287580.3
224  286693.2
224.5  286503.6
225  286311.9
225.5  285421.8
226  284532
226.5  283802.7
227  283072.7
227.5  282182.8
228  281293.1
228.5  280363.6
229  279419.3
229.5  278471.6
230  277524.1
230.5  276596.6
231  275669.1
231.5  274876.5
232  274082.9
232.5  272489.1
233  270901.2
233.5  269956.5
234  269011.5
234.5  268019.6
235  267015.5
235.5  266027
236  265038.1
236.5  264181.7
237  263323.9
237.5  261693.9
238  260069.7
238.5  259065.9
239  258061.5
239.5  257056.4
240  256050.6
240.5  254379.8
241  252706
241.5  251795
242  250882
242.5  249810.8
243  248738.6
243.5  247074.9
244  245416.8
244.5  244346.7
245  243275.5
245.5  241625.8
246  239981.4
246.5  238837.2
247  237686.4
247.5  236123
248  234563
248.5  233412.2
249  232260
249.5  230558
250  228861.2
250.5  227710
251  226557.2
251.5  224868
252  223183.9
252.5  222075.8
253  220962.8
253.5  219214.5
254  217471.2
254.5  215719.9
255  213973.7
255.5  212737.5
256  211499.3
256.5  209758
257  208021.7
257.5  206292.4
258  204568
258.5  203345.8
259  202122
259.5  200302.6
260  198488.3
260.5  196692.8
261  194902.1
261.5  193102.6
262  191308
262.5  189970.8
263  188631
263.5  186842.3
264  185058.4
264.5  183265.3
265  181481.4
265.5  179597.5
266  177718.5
266.5  175855
267  173996.1
267.5  172131.4
268  170271.4
268.5  168416.2
269  166565.5
269.5  165112.7
270  163656.5
270.5  161758.6
271  159874.5
271.5  157903.9
272  155938.2
272.5  153977.2
273  152020.9
273.5  150078.3
274  148140.1
274.5  146197.4
275  144259.3
275.5  142325.6
276  140396.3
276.5  138299.8
277  136224.6
277.5  134230.7
278  132239.3
278.5  130176.7
279  128118.8
279.5  126065.4
280  124016.5
280.5  121979.3
281  119946.4
281.5  117909.7
282  115877.4
282.5  113490.5
283  111132.5
283.5  108778.9
284  106430.4
284.5  104146
285  101863.9
285.5  99527.82
286  97196.45
286.5  94644.17
287  92108.11
287.5  89807.09
288  87510.31
288.5  85117.74
289  82759.16
289.5  80405.26
290  78055.99
290.5  75754.35
291  73454.59
291.5  71116.24
292  68782.34
292.5  66453.07
293  64128.11
293.5  61660.55
294  59208.57
294.5  54161.36
295  49196.43
295.5  44237.36
296  39287.3
296.5  34346.27
297  29414.04
297.5  24504.25
298  19597.55
298.5  14650.73
299  9735.682
299.5  4863.726
300  0
