**** COMMENT ****
Inherent filtration included, 0.16 mm Al
**** INPUTS ****
kVp [kV] hvMIN [keV] Dhv [keV]
60  6  0.5
Angle [deg.]
30
t_AIR t_BE t_AL t_CU t_SN t_W t_Ta t_Ti t_C t_Wa [mm]
1000  0  3.97  0.27  0  0  0  0  0  0
Nf P
0.68  0.33
****CALCULATED OUTPUTS ****
Brem[uGy/mAs@1m] Char[uGy/mAs@1m]
4.946665  0
HVL1[cm AL] HVL2[cm AL] HVL1[cmCu] HVL2[cmCu] MeanE[keV] EffEAl[keV] EffECu[keV]
0.4743752  0.5309019  0.017535  0.0211777  44.59847  40.92492  41.42749
**** CALCULATED SPECTRUM ****
Energy[keV]  N[keV cm^2 mAs]^-1 @ 1 meter
6  3.484502e-60
6.5  2.558486e-48
7  1.908132e-36
7.5  1.430586e-29
8  1.081412e-22
8.5  1.842160e-18
9  2.442460e-39
9.5  6.860647e-34
10  1.938180e-28
10.5  1.370102e-24
11  9.837260e-21
11.5  6.462529e-18
12  4.258067e-15
12.5  6.148140e-13
13  8.888375e-11
13.5  3.416544e-9
14  1.315753e-7
14.5  2.176767e-6
15  0.0000361
15.5  0.0003206
16  0.0028567
16.5  0.0155972
17  0.0853628
17.5  0.3299401
18  1.276705
18.5  3.812086
19  11.38572
19.5  27.70359
20  67.41841
20.5  139.1717
21  287.319
21.5  527.4603
22  969.478
22.5  1600.749
23  2646.966
23.5  4051.623
24  6208.1
24.5  8808.791
25  12503.76
25.5  16934.33
26  22929.9
26.5  29458.35
27  37836.91
27.5  47474.81
28  59615.93
28.5  71347.34
29  85484.24
29.5  99998.03
30  117005.1
30.5  133741.2
31  152816.3
31.5  171827.7
32  193117.5
32.5  213236.2
33  235336.2
33.5  256273.2
34  279238.5
34.5  299880
35  322356.7
35.5  342710.5
36  364374.3
36.5  383492.7
37  403383.7
37.5  421519
38  440146.4
38.5  455718.1
39  471477.6
39.5  485389.5
40  499889.9
40.5  510667.5
41  522126.3
41.5  531036.8
42  540352
42.5  546485.5
43  552526.8
43.5  556930.1
44  560720.6
44.5  561906.5
45  562307.8
45.5  561445.6
46  560568.1
46.5  556832.5
47  553494.3
47.5  547765.2
48  541773.8
48.5  534100.6
49  525643.4
49.5  516059
50  505444.9
50.5  493926.2
51  481135.6
51.5  466607
52  451790.8
52.5  435778.4
53  420141.6
53.5  402170.9
54  383974.3
54.5  364514.6
55  344146.7
55.5  322588.9
56  299588.8
56.5  276195.7
57  248931.3
57.5  221409.8
58  194198.1
58.5  164576.2
59  124298.9
59.5  61920.02
60  0
