**** COMMENT ****
Inherent filtration included, 0.16 mm Al
**** INPUTS ****
kVp [kV] hvMIN [keV] Dhv [keV]
80  8  0.5
Angle [deg.]
30
t_AIR t_BE t_AL t_CU t_SN t_W t_Ta t_Ti t_C t_Wa [mm]
1000  0  4.18  0.49  0  0  0  0  0  0
Nf P
0.68  0.33
****CALCULATED OUTPUTS ****
Brem[uGy/mAs@1m] Char[uGy/mAs@1m]
7.208972  0.2817706
HVL1[cm AL] HVL2[cm AL] HVL1[cmCu] HVL2[cmCu] MeanE[keV] EffEAl[keV] EffECu[keV]
0.7508321  0.8204565  0.0352718  0.0440147  56.82514  52.2804  53.33403
**** CALCULATED SPECTRUM ****
Energy[keV]  N[keV cm^2 mAs]^-1 @ 1 meter
8  2.077475e-28
8.5  2.313668e-23
9  6.952230e-64
9.5  1.063617e-55
10  1.639373e-47
10.5  1.228949e-41
11  9.446070e-36
11.5  2.002484e-31
12  4.255844e-27
12.5  9.690741e-24
13  2.212853e-20
13.5  6.373883e-18
14  1.843303e-15
14.5  1.470594e-13
15  1.175670e-11
15.5  3.597965e-10
16  1.103505e-8
16.5  1.589698e-7
17  2.292680e-6
17.5  0.0000194
18  0.0001647
18.5  0.0009326
19  0.0052887
19.5  0.0218065
20  0.0899585
20.5  0.2869003
21  0.916115
21.5  2.443132
22  6.521168
22.5  14.7207
23  33.23062
23.5  66.68615
24  133.8875
24.5  239.1352
25  427.134
25.5  705.4817
26  1166.51
26.5  1772.867
27  2695.892
27.5  3962.992
28  5825.539
28.5  7924.654
29  10786.99
29.5  14188.77
30  18671.64
30.5  23643.06
31  29929.81
31.5  36883.47
32  45484.9
32.5  54496.49
33  65317.55
33.5  76689.91
34  90113.68
34.5  103543.3
35  119013.3
35.5  134603.5
36  152210.8
36.5  169346
37  188488.3
37.5  207361.1
38  228187.1
38.5  247725.2
39  268826.6
39.5  289493.1
40  311760.2
40.5  332185
41  353852.6
41.5  374577
42  396758.1
42.5  416796.4
43  437939.7
43.5  457674.7
44  478159.9
44.5  495736.1
45  514105.2
45.5  531404.9
46  549384.3
46.5  565034.5
47  580802.3
47.5  595051.5
48  609604.5
48.5  621997.3
49  634398.6
49.5  644777.1
50  655631
50.5  664423.6
51  673416.4
51.5  679135.6
52  684605.3
52.5  690163.5
53  695872.4
53.5  699278.9
54  702761.4
54.5  705994.3
55  708678.6
55.5  707874.5
56  706914.3
56.5  706041.7
57  704764.3
57.5  703236.6
58  1.212206e+6
58.5  696691
59  691447.9
59.5  1.607785e+6
60  682535
60.5  676294.8
61  670072.8
61.5  661765.7
62  653511
62.5  645074.7
63  635863.9
63.5  627017.8
64  617966.3
64.5  606879.3
65  595383.1
65.5  584062.2
66  572918.5
66.5  560754.9
67  931457.6
67.5  535176
68  521150.7
68.5  508368.8
69  599689.6
69.5  480620.9
70  456175.4
70.5  441111.4
71  424934.2
71.5  409926.2
72  394728.6
72.5  378446
73  361727.6
73.5  344628.6
74  327320.8
74.5  309113.5
75  291073.4
75.5  271209.3
76  249850.4
76.5  228727.2
77  207776.8
77.5  186089.6
78  164626.2
78.5  138821.8
79  92013.3
79.5  45734.52
80  0
